# === DATA DESCRIPTION FILE ======================================================
#
# CAUTION - Investigational device.
# Limited by Federal Law to investigational use.
#
#
# CLINICAL TRYOUT             Research image export tool     V4.2
#
# === GENERAL INFORMATION ========================================================
#
.    Protocol name                      :   WIP 3D FLAIR Sag UMich SENSE
.    Series Type                        :   Image   MRSERIES
.    Acquisition nr                     :   4
.    Reconstruction nr                  :   1
.    Scan Duration [sec]                :   528
.    Max. number of cardiac phases      :   1
.    Max. number of echoes              :   1
.    Max. number of slices/locations    :   327
.    Max. number of dynamics            :   1
.    Max. number of mixes               :   1
.    Patient position                   :   Head First Supine
.    Preparation direction              :   Anterior-Posterior
.    Technique                          :   TIR
.    Scan resolution  (x, y)            :   216  220
.    Scan mode                          :   3D
.    Repetition time [ms]               :   8000.000  
.    FOV (ap,fh,rl) [mm]                :   240.000  200.000  179.850
.    Water Fat shift [pixels]           :   0.858
.    Angulation midslice(ap,fh,rl)[degr]:   -4.991  -1.079  1.197
.    Off Centre midslice(ap,fh,rl) [mm] :   6.537  -13.595  -1.546
.    Flow compensation <0=no 1=yes> ?   :   1
.    Presaturation     <0=no 1=yes> ?   :   0
.    Phase encoding velocity [cm/sec]   :   0.000000  0.000000  0.000000
.    MTC               <0=no 1=yes> ?   :   0
.    SPIR              <0=no 1=yes> ?   :   1
.    EPI factor        <0,1=no EPI>     :   1
.    Dynamic scan      <0=no 1=yes> ?   :   0
.    Diffusion         <0=no 1=yes> ?   :   0
.    Diffusion echo time [ms]           :   0.0000
.    Max. number of diffusion values    :   1
.    Max. number of gradient orients    :   1
.    Number of label types   <0=no ASL> :   0
#
# === PIXEL VALUES =============================================================
#  PV = pixel value in REC file, FP = floating point value, DV = displayed value on console
#  RS = rescale slope,           RI = rescale intercept,    SS = scale slope
#  DV = PV * RS + RI             FP = DV / (RS * SS)
#
# === IMAGE INFORMATION DEFINITION =============================================
#  The rest of this file contains ONE line per image, this line contains the following information:
#
#  slice number                             (integer)
#  echo number                              (integer)
#  dynamic scan number                      (integer)
#  cardiac phase number                     (integer)
#  image_type_mr                            (integer)
#  scanning sequence                        (integer)
#  index in REC file (in images)            (integer)
#  image pixel size (in bits)               (integer)
#  scan percentage                          (integer)
#  recon resolution (x y)                   (2*integer)
#  rescale intercept                        (float)
#  rescale slope                            (float)
#  scale slope                              (float)
#  window center                            (integer)
#  window width                             (integer)
#  image angulation (ap,fh,rl in degrees )  (3*float)
#  image offcentre (ap,fh,rl in mm )        (3*float)
#  slice thickness (in mm )                 (float)
#  slice gap (in mm )                       (float)
#  image_display_orientation                (integer)
#  slice orientation ( TRA/SAG/COR )        (integer)
#  fmri_status_indication                   (integer)
#  image_type_ed_es  (end diast/end syst)   (integer)
#  pixel spacing (x,y) (in mm)              (2*float)
#  echo_time                                (float)
#  dyn_scan_begin_time                      (float)
#  trigger_time                             (float)
#  diffusion_b_factor                       (float)
#  number of averages                       (integer)
#  image_flip_angle (in degrees)            (float)
#  cardiac frequency   (bpm)                (integer)
#  minimum RR-interval (in ms)              (integer)
#  maximum RR-interval (in ms)              (integer)
#  TURBO factor  <0=no turbo>               (integer)
#  Inversion delay (in ms)                  (float)
#  diffusion b value number    (imagekey!)  (integer)
#  gradient orientation number (imagekey!)  (integer)
#  contrast type                            (string)
#  diffusion anisotropy type                (string)
#  diffusion (ap, fh, rl)                   (3*float)
#  label type (ASL)            (imagekey!)  (integer)
#
# === IMAGE INFORMATION ==========================================================
#  sl ec  dyn ph ty    idx pix scan% rec size                (re)scale              window        angulation              offcentre        thick   gap   info      spacing     echo     dtime   ttime    diff  avg  flip    freq   RR-int  turbo delay b grad cont anis         diffusion       L.ty

  1   1    1  1 0 0     0  16    79  576  576     0.00000   6.77607 1.16549e-003    13    23  -4.99  -1.08   1.20    4.69   -5.83   87.75  1.100 -0.550 0 2 0 2  0.417  0.417 331.69    0.00     0.00    0.00   1   90.00     0    0    0   110 2400.0  1   1    8    0   0.000    0.000    0.000  1
  2   1    1  1 0 0     1  16    79  576  576     0.00000   6.77607 1.16549e-003    17    30  -4.99  -1.08   1.20    4.70   -5.88   87.20  1.100 -0.550 0 2 0 2  0.417  0.417 331.69    0.00     0.00    0.00   1   90.00     0    0    0   110 2400.0  1   1    8    0   0.000    0.000    0.000  1
  3   1    1  1 0 0     2  16    79  576  576     0.00000   6.77607 1.16549e-003    19    33  -4.99  -1.08   1.20    4.71   -5.93   86.65  1.100 -0.550 0 2 0 2  0.417  0.417 331.69    0.00     0.00    0.00   1   90.00     0    0    0   110 2400.0  1   1    8    0   0.000    0.000    0.000  1
  4   1    1  1 0 0     3  16    79  576  576     0.00000   6.77607 1.16549e-003    18    32  -4.99  -1.08   1.20    4.72   -5.98   86.11  1.100 -0.550 0 2 0 2  0.417  0.417 331.69    0.00     0.00    0.00   1   90.00     0    0    0   110 2400.0  1   1    8    0   0.000    0.000    0.000  1
  5   1    1  1 0 0     4  16    79  576  576     0.00000   6.77607 1.16549e-003    19    34  -4.99  -1.08   1.20    4.73   -6.02   85.56  1.100 -0.550 0 2 0 2  0.417  0.417 331.69    0.00     0.00    0.00   1   90.00     0    0    0   110 2400.0  1   1    8    0   0.000    0.000    0.000  1
  6   1    1  1 0 0     5  16    79  576  576     0.00000   6.77607 1.16549e-003    20    35  -4.99  -1.08   1.20    4.74   -6.07   85.01  1.100 -0.550 0 2 0 2  0.417  0.417 331.69    0.00     0.00    0.00   1   90.00     0    0    0   110 2400.0  1   1    8    0   0.000    0.000    0.000  1
  7   1    1  1 0 0     6  16    79  576  576     0.00000   6.77607 1.16549e-003    20    35  -4.99  -1.08   1.20    4.75   -6.12   84.46  1.100 -0.550 0 2 0 2  0.417  0.417 331.69    0.00     0.00    0.00   1   90.00     0    0    0   110 2400.0  1   1    8    0   0.000    0.000    0.000  1
  8   1    1  1 0 0     7  16    79  576  576     0.00000   6.77607 1.16549e-003    20    35  -4.99  -1.08   1.20    4.77   -6.17   83.91  1.100 -0.550 0 2 0 2  0.417  0.417 331.69    0.00     0.00    0.00   1   90.00     0    0    0   110 2400.0  1   1    8    0   0.000    0.000    0.000  1
  9   1    1  1 0 0     8  16    79  576  576     0.00000   6.77607 1.16549e-003    20    35  -4.99  -1.08   1.20    4.78   -6.21   83.37  1.100 -0.550 0 2 0 2  0.417  0.417 331.69    0.00     0.00    0.00   1   90.00     0    0    0   110 2400.0  1   1    8    0   0.000    0.000    0.000  1
 10   1    1  1 0 0     9  16    79  576  576     0.00000   6.77607 1.16549e-003    20    36  -4.99  -1.08   1.20    4.79   -6.26   82.82  1.100 -0.550 0 2 0 2  0.417  0.417 331.69    0.00     0.00    0.00   1   90.00     0    0    0   110 2400.0  1   1    8    0   0.000    0.000    0.000  1
 11   1    1  1 0 0    10  16    79  576  576     0.00000   6.77607 1.16549e-003    21    36  -4.99  -1.08   1.20    4.80   -6.31   82.27  1.100 -0.550 0 2 0 2  0.417  0.417 331.69    0.00     0.00    0.00   1   90.00     0    0    0   110 2400.0  1   1    8    0   0.000    0.000    0.000  1
 12   1    1  1 0 0    11  16    79  576  576     0.00000   6.77607 1.16549e-003    21    36  -4.99  -1.08   1.20    4.81   -6.36   81.72  1.100 -0.550 0 2 0 2  0.417  0.417 331.69    0.00     0.00    0.00   1   90.00     0    0    0   110 2400.0  1   1    8    0   0.000    0.000    0.000  1
 13   1    1  1 0 0    12  16    79  576  576     0.00000   6.77607 1.16549e-003    21    37  -4.99  -1.08   1.20    4.82   -6.40   81.17  1.100 -0.550 0 2 0 2  0.417  0.417 331.69    0.00     0.00    0.00   1   90.00     0    0    0   110 2400.0  1   1    8    0   0.000    0.000    0.000  1
 14   1    1  1 0 0    13  16    79  576  576     0.00000   6.77607 1.16549e-003    22    38  -4.99  -1.08   1.20    4.83   -6.45   80.63  1.100 -0.550 0 2 0 2  0.417  0.417 331.69    0.00     0.00    0.00   1   90.00     0    0    0   110 2400.0  1   1    8    0   0.000    0.000    0.000  1
 15   1    1  1 0 0    14  16    79  576  576     0.00000   6.77607 1.16549e-003    23    41  -4.99  -1.08   1.20    4.84   -6.50   80.08  1.100 -0.550 0 2 0 2  0.417  0.417 331.69    0.00     0.00    0.00   1   90.00     0    0    0   110 2400.0  1   1    8    0   0.000    0.000    0.000  1
 16   1    1  1 0 0    15  16    79  576  576     0.00000   6.77607 1.16549e-003    26    44  -4.99  -1.08   1.20    4.86   -6.55   79.53  1.100 -0.550 0 2 0 2  0.417  0.417 331.69    0.00     0.00    0.00   1   90.00     0    0    0   110 2400.0  1   1    8    0   0.000    0.000    0.000  1
 17   1    1  1 0 0    16  16    79  576  576     0.00000   6.77607 1.16549e-003    23    39  -4.99  -1.08   1.20    4.87   -6.60   78.98  1.100 -0.550 0 2 0 2  0.417  0.417 331.69    0.00     0.00    0.00   1   90.00     0    0    0   110 2400.0  1   1    8    0   0.000    0.000    0.000  1
 18   1    1  1 0 0    17  16    79  576  576     0.00000   6.77607 1.16549e-003    21    36  -4.99  -1.08   1.20    4.88   -6.64   78.44  1.100 -0.550 0 2 0 2  0.417  0.417 331.69    0.00     0.00    0.00   1   90.00     0    0    0   110 2400.0  1   1    8    0   0.000    0.000    0.000  1
 19   1    1  1 0 0    18  16    79  576  576     0.00000   6.77607 1.16549e-003    20    35  -4.99  -1.08   1.20    4.89   -6.69   77.89  1.100 -0.550 0 2 0 2  0.417  0.417 331.69    0.00     0.00    0.00   1   90.00     0    0    0   110 2400.0  1   1    8    0   0.000    0.000    0.000  1
 20   1    1  1 0 0    19  16    79  576  576     0.00000   6.77607 1.16549e-003    23    40  -4.99  -1.08   1.20    4.90   -6.74   77.34  1.100 -0.550 0 2 0 2  0.417  0.417 331.69    0.00     0.00    0.00   1   90.00     0    0    0   110 2400.0  1   1    8    0   0.000    0.000    0.000  1
 21   1    1  1 0 0    20  16    79  576  576     0.00000   6.77607 1.16549e-003    25    44  -4.99  -1.08   1.20    4.91   -6.79   76.79  1.100 -0.550 0 2 0 2  0.417  0.417 331.69    0.00     0.00    0.00   1   90.00     0    0    0   110 2400.0  1   1    8    0   0.000    0.000    0.000  1
 22   1    1  1 0 0    21  16    79  576  576     0.00000   6.77607 1.16549e-003    29    51  -4.99  -1.08   1.20    4.92   -6.83   76.24  1.100 -0.550 0 2 0 2  0.417  0.417 331.69    0.00     0.00    0.00   1   90.00     0    0    0   110 2400.0  1   1    8    0   0.000    0.000    0.000  1
 23   1    1  1 0 0    22  16    79  576  576     0.00000   6.77607 1.16549e-003    32    55  -4.99  -1.08   1.20    4.94   -6.88   75.70  1.100 -0.550 0 2 0 2  0.417  0.417 331.69    0.00     0.00    0.00   1   90.00     0    0    0   110 2400.0  1   1    8    0   0.000    0.000    0.000  1
 24   1    1  1 0 0    23  16    79  576  576     0.00000   6.77607 1.16549e-003    33    57  -4.99  -1.08   1.20    4.95   -6.93   75.15  1.100 -0.550 0 2 0 2  0.417  0.417 331.69    0.00     0.00    0.00   1   90.00     0    0    0   110 2400.0  1   1    8    0   0.000    0.000    0.000  1
 25   1    1  1 0 0    24  16    79  576  576     0.00000   6.77607 1.16549e-003    35    61  -4.99  -1.08   1.20    4.96   -6.98   74.60  1.100 -0.550 0 2 0 2  0.417  0.417 331.69    0.00     0.00    0.00   1   90.00     0    0    0   110 2400.0  1   1    8    0   0.000    0.000    0.000  1
 26   1    1  1 0 0    25  16    79  576  576     0.00000   6.77607 1.16549e-003    39    67  -4.99  -1.08   1.20    4.97   -7.02   74.05  1.100 -0.550 0 2 0 2  0.417  0.417 331.69    0.00     0.00    0.00   1   90.00     0    0    0   110 2400.0  1   1    8    0   0.000    0.000    0.000  1
 27   1    1  1 0 0    26  16    79  576  576     0.00000   6.77607 1.16549e-003    46    80  -4.99  -1.08   1.20    4.98   -7.07   73.51  1.100 -0.550 0 2 0 2  0.417  0.417 331.69    0.00     0.00    0.00   1   90.00     0    0    0   110 2400.0  1   1    8    0   0.000    0.000    0.000  1
 28   1    1  1 0 0    27  16    79  576  576     0.00000   6.77607 1.16549e-003    57    99  -4.99  -1.08   1.20    4.99   -7.12   72.96  1.100 -0.550 0 2 0 2  0.417  0.417 331.69    0.00     0.00    0.00   1   90.00     0    0    0   110 2400.0  1   1    8    0   0.000    0.000    0.000  1
 29   1    1  1 0 0    28  16    79  576  576     0.00000   6.77607 1.16549e-003    83   144  -4.99  -1.08   1.20    5.00   -7.17   72.41  1.100 -0.550 0 2 0 2  0.417  0.417 331.69    0.00     0.00    0.00   1   90.00     0    0    0   110 2400.0  1   1    8    0   0.000    0.000    0.000  1
 30   1    1  1 0 0    29  16    79  576  576     0.00000   6.77607 1.16549e-003   171   296  -4.99  -1.08   1.20    5.02   -7.21   71.86  1.100 -0.550 0 2 0 2  0.417  0.417 331.69    0.00     0.00    0.00   1   90.00     0    0    0   110 2400.0  1   1    8    0   0.000    0.000    0.000  1
 31   1    1  1 0 0    30  16    79  576  576     0.00000   6.77607 1.16549e-003   244   423  -4.99  -1.08   1.20    5.03   -7.26   71.31  1.100 -0.550 0 2 0 2  0.417  0.417 331.69    0.00     0.00    0.00   1   90.00     0    0    0   110 2400.0  1   1    8    0   0.000    0.000    0.000  1
 32   1    1  1 0 0    31  16    79  576  576     0.00000   6.77607 1.16549e-003   291   505  -4.99  -1.08   1.20    5.04   -7.31   70.77  1.100 -0.550 0 2 0 2  0.417  0.417 331.69    0.00     0.00    0.00   1   90.00     0    0    0   110 2400.0  1   1    8    0   0.000    0.000    0.000  1
 33   1    1  1 0 0    32  16    79  576  576     0.00000   6.77607 1.16549e-003   314   547  -4.99  -1.08   1.20    5.05   -7.36   70.22  1.100 -0.550 0 2 0 2  0.417  0.417 331.69    0.00     0.00    0.00   1   90.00     0    0    0   110 2400.0  1   1    8    0   0.000    0.000    0.000  1
 34   1    1  1 0 0    33  16    79  576  576     0.00000   6.77607 1.16549e-003   344   597  -4.99  -1.08   1.20    5.06   -7.40   69.67  1.100 -0.550 0 2 0 2  0.417  0.417 331.69    0.00     0.00    0.00   1   90.00     0    0    0   110 2400.0  1   1    8    0   0.000    0.000    0.000  1
 35   1    1  1 0 0    34  16    79  576  576     0.00000   6.77607 1.16549e-003   396   688  -4.99  -1.08   1.20    5.07   -7.45   69.12  1.100 -0.550 0 2 0 2  0.417  0.417 331.69    0.00     0.00    0.00   1   90.00     0    0    0   110 2400.0  1   1    8    0   0.000    0.000    0.000  1
 36   1    1  1 0 0    35  16    79  576  576     0.00000   6.77607 1.16549e-003   426   741  -4.99  -1.08   1.20    5.08   -7.50   68.57  1.100 -0.550 0 2 0 2  0.417  0.417 331.69    0.00     0.00    0.00   1   90.00     0    0    0   110 2400.0  1   1    8    0   0.000    0.000    0.000  1
 37   1    1  1 0 0    36  16    79  576  576     0.00000   6.77607 1.16549e-003   471   819  -4.99  -1.08   1.20    5.09   -7.55   68.03  1.100 -0.550 0 2 0 2  0.417  0.417 331.69    0.00     0.00    0.00   1   90.00     0    0    0   110 2400.0  1   1    8    0   0.000    0.000    0.000  1
 38   1    1  1 0 0    37  16    79  576  576     0.00000   6.77607 1.16549e-003   509   885  -4.99  -1.08   1.20    5.11   -7.60   67.48  1.100 -0.550 0 2 0 2  0.417  0.417 331.69    0.00     0.00    0.00   1   90.00     0    0    0   110 2400.0  1   1    8    0   0.000    0.000    0.000  1
 39   1    1  1 0 0    38  16    79  576  576     0.00000   6.77607 1.16549e-003   561   975  -4.99  -1.08   1.20    5.12   -7.64   66.93  1.100 -0.550 0 2 0 2  0.417  0.417 331.69    0.00     0.00    0.00   1   90.00     0    0    0   110 2400.0  1   1    8    0   0.000    0.000    0.000  1
 40   1    1  1 0 0    39  16    79  576  576     0.00000   6.77607 1.16549e-003   587  1021  -4.99  -1.08   1.20    5.13   -7.69   66.38  1.100 -0.550 0 2 0 2  0.417  0.417 331.69    0.00     0.00    0.00   1   90.00     0    0    0   110 2400.0  1   1    8    0   0.000    0.000    0.000  1
 41   1    1  1 0 0    40  16    79  576  576     0.00000   6.77607 1.16549e-003   594  1033  -4.99  -1.08   1.20    5.14   -7.74   65.84  1.100 -0.550 0 2 0 2  0.417  0.417 331.69    0.00     0.00    0.00   1   90.00     0    0    0   110 2400.0  1   1    8    0   0.000    0.000    0.000  1
 42   1    1  1 0 0    41  16    79  576  576     0.00000   6.77607 1.16549e-003   574   998  -4.99  -1.08   1.20    5.15   -7.79   65.29  1.100 -0.550 0 2 0 2  0.417  0.417 331.69    0.00     0.00    0.00   1   90.00     0    0    0   110 2400.0  1   1    8    0   0.000    0.000    0.000  1
 43   1    1  1 0 0    42  16    79  576  576     0.00000   6.77607 1.16549e-003   531   923  -4.99  -1.08   1.20    5.16   -7.83   64.74  1.100 -0.550 0 2 0 2  0.417  0.417 331.69    0.00     0.00    0.00   1   90.00     0    0    0   110 2400.0  1   1    8    0   0.000    0.000    0.000  1
 44   1    1  1 0 0    43  16    79  576  576     0.00000   6.77607 1.16549e-003   537   934  -4.99  -1.08   1.20    5.17   -7.88   64.19  1.100 -0.550 0 2 0 2  0.417  0.417 331.69    0.00     0.00    0.00   1   90.00     0    0    0   110 2400.0  1   1    8    0   0.000    0.000    0.000  1
 45   1    1  1 0 0    44  16    79  576  576     0.00000   6.77607 1.16549e-003   597  1038  -4.99  -1.08   1.20    5.19   -7.93   63.64  1.100 -0.550 0 2 0 2  0.417  0.417 331.69    0.00     0.00    0.00   1   90.00     0    0    0   110 2400.0  1   1    8    0   0.000    0.000    0.000  1
 46   1    1  1 0 0    45  16    79  576  576     0.00000   6.77607 1.16549e-003   662  1150  -4.99  -1.08   1.20    5.20   -7.98   63.10  1.100 -0.550 0 2 0 2  0.417  0.417 331.69    0.00     0.00    0.00   1   90.00     0    0    0   110 2400.0  1   1    8    0   0.000    0.000    0.000  1
 47   1    1  1 0 0    46  16    79  576  576     0.00000   6.77607 1.16549e-003   695  1209  -4.99  -1.08   1.20    5.21   -8.02   62.55  1.100 -0.550 0 2 0 2  0.417  0.417 331.69    0.00     0.00    0.00   1   90.00     0    0    0   110 2400.0  1   1    8    0   0.000    0.000    0.000  1
 48   1    1  1 0 0    47  16    79  576  576     0.00000   6.77607 1.16549e-003   701  1218  -4.99  -1.08   1.20    5.22   -8.07   62.00  1.100 -0.550 0 2 0 2  0.417  0.417 331.69    0.00     0.00    0.00   1   90.00     0    0    0   110 2400.0  1   1    8    0   0.000    0.000    0.000  1
 49   1    1  1 0 0    48  16    79  576  576     0.00000   6.77607 1.16549e-003   697  1212  -4.99  -1.08   1.20    5.23   -8.12   61.45  1.100 -0.550 0 2 0 2  0.417  0.417 331.69    0.00     0.00    0.00   1   90.00     0    0    0   110 2400.0  1   1    8    0   0.000    0.000    0.000  1
 50   1    1  1 0 0    49  16    79  576  576     0.00000   6.77607 1.16549e-003   711  1235  -4.99  -1.08   1.20    5.24   -8.17   60.91  1.100 -0.550 0 2 0 2  0.417  0.417 331.69    0.00     0.00    0.00   1   90.00     0    0    0   110 2400.0  1   1    8    0   0.000    0.000    0.000  1
 51   1    1  1 0 0    50  16    79  576  576     0.00000   6.77607 1.16549e-003   724  1259  -4.99  -1.08   1.20    5.25   -8.21   60.36  1.100 -0.550 0 2 0 2  0.417  0.417 331.69    0.00     0.00    0.00   1   90.00     0    0    0   110 2400.0  1   1    8    0   0.000    0.000    0.000  1
 52   1    1  1 0 0    51  16    79  576  576     0.00000   6.77607 1.16549e-003   749  1302  -4.99  -1.08   1.20    5.26   -8.26   59.81  1.100 -0.550 0 2 0 2  0.417  0.417 331.69    0.00     0.00    0.00   1   90.00     0    0    0   110 2400.0  1   1    8    0   0.000    0.000    0.000  1
 53   1    1  1 0 0    52  16    79  576  576     0.00000   6.77607 1.16549e-003   763  1326  -4.99  -1.08   1.20    5.28   -8.31   59.26  1.100 -0.550 0 2 0 2  0.417  0.417 331.69    0.00     0.00    0.00   1   90.00     0    0    0   110 2400.0  1   1    8    0   0.000    0.000    0.000  1
 54   1    1  1 0 0    53  16    79  576  576     0.00000   6.77607 1.16549e-003   768  1335  -4.99  -1.08   1.20    5.29   -8.36   58.71  1.100 -0.550 0 2 0 2  0.417  0.417 331.69    0.00     0.00    0.00   1   90.00     0    0    0   110 2400.0  1   1    8    0   0.000    0.000    0.000  1
 55   1    1  1 0 0    54  16    79  576  576     0.00000   6.77607 1.16549e-003   773  1343  -4.99  -1.08   1.20    5.30   -8.40   58.17  1.100 -0.550 0 2 0 2  0.417  0.417 331.69    0.00     0.00    0.00   1   90.00     0    0    0   110 2400.0  1   1    8    0   0.000    0.000    0.000  1
 56   1    1  1 0 0    55  16    79  576  576     0.00000   6.77607 1.16549e-003   821  1428  -4.99  -1.08   1.20    5.31   -8.45   57.62  1.100 -0.550 0 2 0 2  0.417  0.417 331.69    0.00     0.00    0.00   1   90.00     0    0    0   110 2400.0  1   1    8    0   0.000    0.000    0.000  1
 57   1    1  1 0 0    56  16    79  576  576     0.00000   6.77607 1.16549e-003   942  1638  -4.99  -1.08   1.20    5.32   -8.50   57.07  1.100 -0.550 0 2 0 2  0.417  0.417 331.69    0.00     0.00    0.00   1   90.00     0    0    0   110 2400.0  1   1    8    0   0.000    0.000    0.000  1
 58   1    1  1 0 0    57  16    79  576  576     0.00000   6.77607 1.16549e-003  1016  1766  -4.99  -1.08   1.20    5.33   -8.55   56.52  1.100 -0.550 0 2 0 2  0.417  0.417 331.69    0.00     0.00    0.00   1   90.00     0    0    0   110 2400.0  1   1    8    0   0.000    0.000    0.000  1
 59   1    1  1 0 0    58  16    79  576  576     0.00000   6.77607 1.16549e-003  1061  1844  -4.99  -1.08   1.20    5.34   -8.60   55.98  1.100 -0.550 0 2 0 2  0.417  0.417 331.69    0.00     0.00    0.00   1   90.00     0    0    0   110 2400.0  1   1    8    0   0.000    0.000    0.000  1
 60   1    1  1 0 0    59  16    79  576  576     0.00000   6.77607 1.16549e-003  1075  1869  -4.99  -1.08   1.20    5.36   -8.64   55.43  1.100 -0.550 0 2 0 2  0.417  0.417 331.69    0.00     0.00    0.00   1   90.00     0    0    0   110 2400.0  1   1    8    0   0.000    0.000    0.000  1
 61   1    1  1 0 0    60  16    79  576  576     0.00000   6.77607 1.16549e-003  1101  1914  -4.99  -1.08   1.20    5.37   -8.69   54.88  1.100 -0.550 0 2 0 2  0.417  0.417 331.69    0.00     0.00    0.00   1   90.00     0    0    0   110 2400.0  1   1    8    0   0.000    0.000    0.000  1
 62   1    1  1 0 0    61  16    79  576  576     0.00000   6.77607 1.16549e-003  1128  1960  -4.99  -1.08   1.20    5.38   -8.74   54.33  1.100 -0.550 0 2 0 2  0.417  0.417 331.69    0.00     0.00    0.00   1   90.00     0    0    0   110 2400.0  1   1    8    0   0.000    0.000    0.000  1
 63   1    1  1 0 0    62  16    79  576  576     0.00000   6.77607 1.16549e-003  1146  1993  -4.99  -1.08   1.20    5.39   -8.79   53.78  1.100 -0.550 0 2 0 2  0.417  0.417 331.69    0.00     0.00    0.00   1   90.00     0    0    0   110 2400.0  1   1    8    0   0.000    0.000    0.000  1
 64   1    1  1 0 0    63  16    79  576  576     0.00000   6.77607 1.16549e-003  1180  2051  -4.99  -1.08   1.20    5.40   -8.83   53.24  1.100 -0.550 0 2 0 2  0.417  0.417 331.69    0.00     0.00    0.00   1   90.00     0    0    0   110 2400.0  1   1    8    0   0.000    0.000    0.000  1
 65   1    1  1 0 0    64  16    79  576  576     0.00000   6.77607 1.16549e-003  1195  2077  -4.99  -1.08   1.20    5.41   -8.88   52.69  1.100 -0.550 0 2 0 2  0.417  0.417 331.69    0.00     0.00    0.00   1   90.00     0    0    0   110 2400.0  1   1    8    0   0.000    0.000    0.000  1
 66   1    1  1 0 0    65  16    79  576  576     0.00000   6.77607 1.16549e-003  1201  2088  -4.99  -1.08   1.20    5.42   -8.93   52.14  1.100 -0.550 0 2 0 2  0.417  0.417 331.69    0.00     0.00    0.00   1   90.00     0    0    0   110 2400.0  1   1    8    0   0.000    0.000    0.000  1
 67   1    1  1 0 0    66  16    79  576  576     0.00000   6.77607 1.16549e-003  1208  2099  -4.99  -1.08   1.20    5.44   -8.98   51.59  1.100 -0.550 0 2 0 2  0.417  0.417 331.69    0.00     0.00    0.00   1   90.00     0    0    0   110 2400.0  1   1    8    0   0.000    0.000    0.000  1
 68   1    1  1 0 0    67  16    79  576  576     0.00000   6.77607 1.16549e-003  1233  2143  -4.99  -1.08   1.20    5.45   -9.02   51.04  1.100 -0.550 0 2 0 2  0.417  0.417 331.69    0.00     0.00    0.00   1   90.00     0    0    0   110 2400.0  1   1    8    0   0.000    0.000    0.000  1
 69   1    1  1 0 0    68  16    79  576  576     0.00000   6.77607 1.16549e-003  1244  2163  -4.99  -1.08   1.20    5.46   -9.07   50.50  1.100 -0.550 0 2 0 2  0.417  0.417 331.69    0.00     0.00    0.00   1   90.00     0    0    0   110 2400.0  1   1    8    0   0.000    0.000    0.000  1
 70   1    1  1 0 0    69  16    79  576  576     0.00000   6.77607 1.16549e-003  1250  2173  -4.99  -1.08   1.20    5.47   -9.12   49.95  1.100 -0.550 0 2 0 2  0.417  0.417 331.69    0.00     0.00    0.00   1   90.00     0    0    0   110 2400.0  1   1    8    0   0.000    0.000    0.000  1
 71   1    1  1 0 0    70  16    79  576  576     0.00000   6.77607 1.16549e-003  1254  2181  -4.99  -1.08   1.20    5.48   -9.17   49.40  1.100 -0.550 0 2 0 2  0.417  0.417 331.69    0.00     0.00    0.00   1   90.00     0    0    0   110 2400.0  1   1    8    0   0.000    0.000    0.000  1
 72   1    1  1 0 0    71  16    79  576  576     0.00000   6.77607 1.16549e-003  1260  2190  -4.99  -1.08   1.20    5.49   -9.21   48.85  1.100 -0.550 0 2 0 2  0.417  0.417 331.69    0.00     0.00    0.00   1   90.00     0    0    0   110 2400.0  1   1    8    0   0.000    0.000    0.000  1
 73   1    1  1 0 0    72  16    79  576  576     0.00000   6.77607 1.16549e-003  1281  2227  -4.99  -1.08   1.20    5.50   -9.26   48.31  1.100 -0.550 0 2 0 2  0.417  0.417 331.69    0.00     0.00    0.00   1   90.00     0    0    0   110 2400.0  1   1    8    0   0.000    0.000    0.000  1
 74   1    1  1 0 0    73  16    79  576  576     0.00000   6.77607 1.16549e-003  1288  2239  -4.99  -1.08   1.20    5.51   -9.31   47.76  1.100 -0.550 0 2 0 2  0.417  0.417 331.69    0.00     0.00    0.00   1   90.00     0    0    0   110 2400.0  1   1    8    0   0.000    0.000    0.000  1
 75   1    1  1 0 0    74  16    79  576  576     0.00000   6.77607 1.16549e-003  1287  2236  -4.99  -1.08   1.20    5.53   -9.36   47.21  1.100 -0.550 0 2 0 2  0.417  0.417 331.69    0.00     0.00    0.00   1   90.00     0    0    0   110 2400.0  1   1    8    0   0.000    0.000    0.000  1
 76   1    1  1 0 0    75  16    79  576  576     0.00000   6.77607 1.16549e-003  1302  2263  -4.99  -1.08   1.20    5.54   -9.40   46.66  1.100 -0.550 0 2 0 2  0.417  0.417 331.69    0.00     0.00    0.00   1   90.00     0    0    0   110 2400.0  1   1    8    0   0.000    0.000    0.000  1
 77   1    1  1 0 0    76  16    79  576  576     0.00000   6.77607 1.16549e-003  1307  2272  -4.99  -1.08   1.20    5.55   -9.45   46.11  1.100 -0.550 0 2 0 2  0.417  0.417 331.69    0.00     0.00    0.00   1   90.00     0    0    0   110 2400.0  1   1    8    0   0.000    0.000    0.000  1
 78   1    1  1 0 0    77  16    79  576  576     0.00000   6.77607 1.16549e-003  1303  2266  -4.99  -1.08   1.20    5.56   -9.50   45.57  1.100 -0.550 0 2 0 2  0.417  0.417 331.69    0.00     0.00    0.00   1   90.00     0    0    0   110 2400.0  1   1    8    0   0.000    0.000    0.000  1
 79   1    1  1 0 0    78  16    79  576  576     0.00000   6.77607 1.16549e-003  1309  2276  -4.99  -1.08   1.20    5.57   -9.55   45.02  1.100 -0.550 0 2 0 2  0.417  0.417 331.69    0.00     0.00    0.00   1   90.00     0    0    0   110 2400.0  1   1    8    0   0.000    0.000    0.000  1
 80   1    1  1 0 0    79  16    79  576  576     0.00000   6.77607 1.16549e-003  1301  2262  -4.99  -1.08   1.20    5.58   -9.60   44.47  1.100 -0.550 0 2 0 2  0.417  0.417 331.69    0.00     0.00    0.00   1   90.00     0    0    0   110 2400.0  1   1    8    0   0.000    0.000    0.000  1
 81   1    1  1 0 0    80  16    79  576  576     0.00000   6.77607 1.16549e-003  1306  2270  -4.99  -1.08   1.20    5.59   -9.64   43.92  1.100 -0.550 0 2 0 2  0.417  0.417 331.69    0.00     0.00    0.00   1   90.00     0    0    0   110 2400.0  1   1    8    0   0.000    0.000    0.000  1
 82   1    1  1 0 0    81  16    79  576  576     0.00000   6.77607 1.16549e-003  1311  2279  -4.99  -1.08   1.20    5.61   -9.69   43.38  1.100 -0.550 0 2 0 2  0.417  0.417 331.69    0.00     0.00    0.00   1   90.00     0    0    0   110 2400.0  1   1    8    0   0.000    0.000    0.000  1
 83   1    1  1 0 0    82  16    79  576  576     0.00000   6.77607 1.16549e-003  1309  2276  -4.99  -1.08   1.20    5.62   -9.74   42.83  1.100 -0.550 0 2 0 2  0.417  0.417 331.69    0.00     0.00    0.00   1   90.00     0    0    0   110 2400.0  1   1    8    0   0.000    0.000    0.000  1
 84   1    1  1 0 0    83  16    79  576  576     0.00000   6.77607 1.16549e-003  1309  2275  -4.99  -1.08   1.20    5.63   -9.79   42.28  1.100 -0.550 0 2 0 2  0.417  0.417 331.69    0.00     0.00    0.00   1   90.00     0    0    0   110 2400.0  1   1    8    0   0.000    0.000    0.000  1
