# === DATA DESCRIPTION FILE ======================================================
#
# CAUTION - Investigational device.
# Limited by Federal Law to investigational use.
#
#
# CLINICAL TRYOUT             Research image export tool     V4.2
#
# === GENERAL INFORMATION ========================================================
#
.    Protocol name                      :   WIP MPrageADNIsag SENSE
.    Series Type                        :   Image   MRSERIES
.    Acquisition nr                     :   3
.    Reconstruction nr                  :   1
.    Scan Duration [sec]                :   356
.    Max. number of cardiac phases      :   1
.    Max. number of echoes              :   1
.    Max. number of slices/locations    :   170
.    Max. number of dynamics            :   1
.    Max. number of mixes               :   1
.    Patient position                   :   Head First Supine
.    Preparation direction              :   Anterior-Posterior
.    Technique                          :   T1TFE
.    Scan resolution  (x, y)            :   256  256
.    Scan mode                          :   3D
.    Repetition time [ms]               :   6.797  
.    FOV (ap,fh,rl) [mm]                :   240.000  256.000  204.000
.    Water Fat shift [pixels]           :   1.802
.    Angulation midslice(ap,fh,rl)[degr]:   0.877  -2.157  0.095
.    Off Centre midslice(ap,fh,rl) [mm] :   -18.063  2.077  0.210
.    Flow compensation <0=no 1=yes> ?   :   0
.    Presaturation     <0=no 1=yes> ?   :   0
.    Phase encoding velocity [cm/sec]   :   0.000000  0.000000  0.000000
.    MTC               <0=no 1=yes> ?   :   0
.    SPIR              <0=no 1=yes> ?   :   0
.    EPI factor        <0,1=no EPI>     :   1
.    Dynamic scan      <0=no 1=yes> ?   :   0
.    Diffusion         <0=no 1=yes> ?   :   0
.    Diffusion echo time [ms]           :   0.0000
.    Max. number of diffusion values    :   1
.    Max. number of gradient orients    :   1
.    Number of label types   <0=no ASL> :   0
#
# === PIXEL VALUES =============================================================
#  PV = pixel value in REC file, FP = floating point value, DV = displayed value on console
#  RS = rescale slope,           RI = rescale intercept,    SS = scale slope
#  DV = PV * RS + RI             FP = DV / (RS * SS)
#
# === IMAGE INFORMATION DEFINITION =============================================
#  The rest of this file contains ONE line per image, this line contains the following information:
#
#  slice number                             (integer)
#  echo number                              (integer)
#  dynamic scan number                      (integer)
#  cardiac phase number                     (integer)
#  image_type_mr                            (integer)
#  scanning sequence                        (integer)
#  index in REC file (in images)            (integer)
#  image pixel size (in bits)               (integer)
#  scan percentage                          (integer)
#  recon resolution (x y)                   (2*integer)
#  rescale intercept                        (float)
#  rescale slope                            (float)
#  scale slope                              (float)
#  window center                            (integer)
#  window width                             (integer)
#  image angulation (ap,fh,rl in degrees )  (3*float)
#  image offcentre (ap,fh,rl in mm )        (3*float)
#  slice thickness (in mm )                 (float)
#  slice gap (in mm )                       (float)
#  image_display_orientation                (integer)
#  slice orientation ( TRA/SAG/COR )        (integer)
#  fmri_status_indication                   (integer)
#  image_type_ed_es  (end diast/end syst)   (integer)
#  pixel spacing (x,y) (in mm)              (2*float)
#  echo_time                                (float)
#  dyn_scan_begin_time                      (float)
#  trigger_time                             (float)
#  diffusion_b_factor                       (float)
#  number of averages                       (integer)
#  image_flip_angle (in degrees)            (float)
#  cardiac frequency   (bpm)                (integer)
#  minimum RR-interval (in ms)              (integer)
#  maximum RR-interval (in ms)              (integer)
#  TURBO factor  <0=no turbo>               (integer)
#  Inversion delay (in ms)                  (float)
#  diffusion b value number    (imagekey!)  (integer)
#  gradient orientation number (imagekey!)  (integer)
#  contrast type                            (string)
#  diffusion anisotropy type                (string)
#  diffusion (ap, fh, rl)                   (3*float)
#  label type (ASL)            (imagekey!)  (integer)
#
# === IMAGE INFORMATION ==========================================================
#  sl ec  dyn ph ty    idx pix scan% rec size                (re)scale              window        angulation              offcentre        thick   gap   info      spacing     echo     dtime   ttime    diff  avg  flip    freq   RR-int  turbo delay b grad cont anis         diffusion       L.ty

  1   1    1  1 0 2     0  16   100  256  256     0.00000   6.86789 2.05703e-004    18    31   0.88  -2.16   0.09  -21.88    0.52  101.53  1.200  0.000 0 2 0 2  1.000  1.000   3.14    0.00     0.00    0.00   1    8.00     0    0    0   240   0.0  1   1    7    0   0.000    0.000    0.000  1
  2   1    1  1 0 2     1  16   100  256  256     0.00000   6.86789 2.05703e-004    17    30   0.88  -2.16   0.09  -21.83    0.54  100.33  1.200  0.000 0 2 0 2  1.000  1.000   3.14    0.00     0.00    0.00   1    8.00     0    0    0   240   0.0  1   1    7    0   0.000    0.000    0.000  1
  3   1    1  1 0 2     2  16   100  256  256     0.00000   6.86789 2.05703e-004    17    29   0.88  -2.16   0.09  -21.79    0.56   99.13  1.200  0.000 0 2 0 2  1.000  1.000   3.14    0.00     0.00    0.00   1    8.00     0    0    0   240   0.0  1   1    7    0   0.000    0.000    0.000  1
  4   1    1  1 0 2     3  16   100  256  256     0.00000   6.86789 2.05703e-004    18    32   0.88  -2.16   0.09  -21.74    0.58   97.93  1.200  0.000 0 2 0 2  1.000  1.000   3.14    0.00     0.00    0.00   1    8.00     0    0    0   240   0.0  1   1    7    0   0.000    0.000    0.000  1
  5   1    1  1 0 2     4  16   100  256  256     0.00000   6.86789 2.05703e-004    21    36   0.88  -2.16   0.09  -21.70    0.59   96.73  1.200  0.000 0 2 0 2  1.000  1.000   3.14    0.00     0.00    0.00   1    8.00     0    0    0   240   0.0  1   1    7    0   0.000    0.000    0.000  1
  6   1    1  1 0 2     5  16   100  256  256     0.00000   6.86789 2.05703e-004    23    39   0.88  -2.16   0.09  -21.65    0.61   95.53  1.200  0.000 0 2 0 2  1.000  1.000   3.14    0.00     0.00    0.00   1    8.00     0    0    0   240   0.0  1   1    7    0   0.000    0.000    0.000  1
  7   1    1  1 0 2     6  16   100  256  256     0.00000   6.86789 2.05703e-004    22    39   0.88  -2.16   0.09  -21.61    0.63   94.33  1.200  0.000 0 2 0 2  1.000  1.000   3.14    0.00     0.00    0.00   1    8.00     0    0    0   240   0.0  1   1    7    0   0.000    0.000    0.000  1
  8   1    1  1 0 2     7  16   100  256  256     0.00000   6.86789 2.05703e-004    21    37   0.88  -2.16   0.09  -21.56    0.65   93.13  1.200  0.000 0 2 0 2  1.000  1.000   3.14    0.00     0.00    0.00   1    8.00     0    0    0   240   0.0  1   1    7    0   0.000    0.000    0.000  1
  9   1    1  1 0 2     8  16   100  256  256     0.00000   6.86789 2.05703e-004    24    42   0.88  -2.16   0.09  -21.52    0.67   91.93  1.200  0.000 0 2 0 2  1.000  1.000   3.14    0.00     0.00    0.00   1    8.00     0    0    0   240   0.0  1   1    7    0   0.000    0.000    0.000  1
 10   1    1  1 0 2     9  16   100  256  256     0.00000   6.86789 2.05703e-004    22    38   0.88  -2.16   0.09  -21.47    0.69   90.74  1.200  0.000 0 2 0 2  1.000  1.000   3.14    0.00     0.00    0.00   1    8.00     0    0    0   240   0.0  1   1    7    0   0.000    0.000    0.000  1
 11   1    1  1 0 2    10  16   100  256  256     0.00000   6.86789 2.05703e-004    22    38   0.88  -2.16   0.09  -21.43    0.70   89.54  1.200  0.000 0 2 0 2  1.000  1.000   3.14    0.00     0.00    0.00   1    8.00     0    0    0   240   0.0  1   1    7    0   0.000    0.000    0.000  1
 12   1    1  1 0 2    11  16   100  256  256     0.00000   6.86789 2.05703e-004    24    42   0.88  -2.16   0.09  -21.38    0.72   88.34  1.200  0.000 0 2 0 2  1.000  1.000   3.14    0.00     0.00    0.00   1    8.00     0    0    0   240   0.0  1   1    7    0   0.000    0.000    0.000  1
 13   1    1  1 0 2    12  16   100  256  256     0.00000   6.86789 2.05703e-004    26    45   0.88  -2.16   0.09  -21.34    0.74   87.14  1.200  0.000 0 2 0 2  1.000  1.000   3.14    0.00     0.00    0.00   1    8.00     0    0    0   240   0.0  1   1    7    0   0.000    0.000    0.000  1
 14   1    1  1 0 2    13  16   100  256  256     0.00000   6.86789 2.05703e-004    28    48   0.88  -2.16   0.09  -21.29    0.76   85.94  1.200  0.000 0 2 0 2  1.000  1.000   3.14    0.00     0.00    0.00   1    8.00     0    0    0   240   0.0  1   1    7    0   0.000    0.000    0.000  1
 15   1    1  1 0 2    14  16   100  256  256     0.00000   6.86789 2.05703e-004    37    65   0.88  -2.16   0.09  -21.25    0.78   84.74  1.200  0.000 0 2 0 2  1.000  1.000   3.14    0.00     0.00    0.00   1    8.00     0    0    0   240   0.0  1   1    7    0   0.000    0.000    0.000  1
 16   1    1  1 0 2    15  16   100  256  256     0.00000   6.86789 2.05703e-004    54    94   0.88  -2.16   0.09  -21.20    0.80   83.54  1.200  0.000 0 2 0 2  1.000  1.000   3.14    0.00     0.00    0.00   1    8.00     0    0    0   240   0.0  1   1    7    0   0.000    0.000    0.000  1
 17   1    1  1 0 2    16  16   100  256  256     0.00000   6.86789 2.05703e-004   280   487   0.88  -2.16   0.09  -21.16    0.81   82.34  1.200  0.000 0 2 0 2  1.000  1.000   3.14    0.00     0.00    0.00   1    8.00     0    0    0   240   0.0  1   1    7    0   0.000    0.000    0.000  1
 18   1    1  1 0 2    17  16   100  256  256     0.00000   6.86789 2.05703e-004   402   699   0.88  -2.16   0.09  -21.11    0.83   81.14  1.200  0.000 0 2 0 2  1.000  1.000   3.14    0.00     0.00    0.00   1    8.00     0    0    0   240   0.0  1   1    7    0   0.000    0.000    0.000  1
 19   1    1  1 0 2    18  16   100  256  256     0.00000   6.86789 2.05703e-004   487   846   0.88  -2.16   0.09  -21.06    0.85   79.94  1.200  0.000 0 2 0 2  1.000  1.000   3.14    0.00     0.00    0.00   1    8.00     0    0    0   240   0.0  1   1    7    0   0.000    0.000    0.000  1
 20   1    1  1 0 2    19  16   100  256  256     0.00000   6.86789 2.05703e-004   662  1151   0.88  -2.16   0.09  -21.02    0.87   78.75  1.200  0.000 0 2 0 2  1.000  1.000   3.14    0.00     0.00    0.00   1    8.00     0    0    0   240   0.0  1   1    7    0   0.000    0.000    0.000  1
 21   1    1  1 0 2    20  16   100  256  256     0.00000   6.86789 2.05703e-004   715  1242   0.88  -2.16   0.09  -20.97    0.89   77.55  1.200  0.000 0 2 0 2  1.000  1.000   3.14    0.00     0.00    0.00   1    8.00     0    0    0   240   0.0  1   1    7    0   0.000    0.000    0.000  1
 22   1    1  1 0 2    21  16   100  256  256     0.00000   6.86789 2.05703e-004   776  1348   0.88  -2.16   0.09  -20.93    0.91   76.35  1.200  0.000 0 2 0 2  1.000  1.000   3.14    0.00     0.00    0.00   1    8.00     0    0    0   240   0.0  1   1    7    0   0.000    0.000    0.000  1
 23   1    1  1 0 2    22  16   100  256  256     0.00000   6.86789 2.05703e-004   765  1329   0.88  -2.16   0.09  -20.88    0.93   75.15  1.200  0.000 0 2 0 2  1.000  1.000   3.14    0.00     0.00    0.00   1    8.00     0    0    0   240   0.0  1   1    7    0   0.000    0.000    0.000  1
 24   1    1  1 0 2    23  16   100  256  256     0.00000   6.86789 2.05703e-004   798  1387   0.88  -2.16   0.09  -20.84    0.94   73.95  1.200  0.000 0 2 0 2  1.000  1.000   3.14    0.00     0.00    0.00   1    8.00     0    0    0   240   0.0  1   1    7    0   0.000    0.000    0.000  1
 25   1    1  1 0 2    24  16   100  256  256     0.00000   6.86789 2.05703e-004   793  1379   0.88  -2.16   0.09  -20.79    0.96   72.75  1.200  0.000 0 2 0 2  1.000  1.000   3.14    0.00     0.00    0.00   1    8.00     0    0    0   240   0.0  1   1    7    0   0.000    0.000    0.000  1
 26   1    1  1 0 2    25  16   100  256  256     0.00000   6.86789 2.05703e-004   832  1447   0.88  -2.16   0.09  -20.75    0.98   71.55  1.200  0.000 0 2 0 2  1.000  1.000   3.14    0.00     0.00    0.00   1    8.00     0    0    0   240   0.0  1   1    7    0   0.000    0.000    0.000  1
 27   1    1  1 0 2    26  16   100  256  256     0.00000   6.86789 2.05703e-004   910  1581   0.88  -2.16   0.09  -20.70    1.00   70.35  1.200  0.000 0 2 0 2  1.000  1.000   3.14    0.00     0.00    0.00   1    8.00     0    0    0   240   0.0  1   1    7    0   0.000    0.000    0.000  1
 28   1    1  1 0 2    27  16   100  256  256     0.00000   6.86789 2.05703e-004   998  1734   0.88  -2.16   0.09  -20.66    1.02   69.15  1.200  0.000 0 2 0 2  1.000  1.000   3.14    0.00     0.00    0.00   1    8.00     0    0    0   240   0.0  1   1    7    0   0.000    0.000    0.000  1
 29   1    1  1 0 2    28  16   100  256  256     0.00000   6.86789 2.05703e-004  1056  1835   0.88  -2.16   0.09  -20.61    1.04   67.95  1.200  0.000 0 2 0 2  1.000  1.000   3.14    0.00     0.00    0.00   1    8.00     0    0    0   240   0.0  1   1    7    0   0.000    0.000    0.000  1
 30   1    1  1 0 2    29  16   100  256  256     0.00000   6.86789 2.05703e-004  1098  1908   0.88  -2.16   0.09  -20.57    1.05   66.76  1.200  0.000 0 2 0 2  1.000  1.000   3.14    0.00     0.00    0.00   1    8.00     0    0    0   240   0.0  1   1    7    0   0.000    0.000    0.000  1
 31   1    1  1 0 2    30  16   100  256  256     0.00000   6.86789 2.05703e-004  1140  1982   0.88  -2.16   0.09  -20.52    1.07   65.56  1.200  0.000 0 2 0 2  1.000  1.000   3.14    0.00     0.00    0.00   1    8.00     0    0    0   240   0.0  1   1    7    0   0.000    0.000    0.000  1
 32   1    1  1 0 2    31  16   100  256  256     0.00000   6.86789 2.05703e-004  1101  1914   0.88  -2.16   0.09  -20.48    1.09   64.36  1.200  0.000 0 2 0 2  1.000  1.000   3.14    0.00     0.00    0.00   1    8.00     0    0    0   240   0.0  1   1    7    0   0.000    0.000    0.000  1
 33   1    1  1 0 2    32  16   100  256  256     0.00000   6.86789 2.05703e-004  1129  1963   0.88  -2.16   0.09  -20.43    1.11   63.16  1.200  0.000 0 2 0 2  1.000  1.000   3.14    0.00     0.00    0.00   1    8.00     0    0    0   240   0.0  1   1    7    0   0.000    0.000    0.000  1
 34   1    1  1 0 2    33  16   100  256  256     0.00000   6.86789 2.05703e-004  1242  2159   0.88  -2.16   0.09  -20.39    1.13   61.96  1.200  0.000 0 2 0 2  1.000  1.000   3.14    0.00     0.00    0.00   1    8.00     0    0    0   240   0.0  1   1    7    0   0.000    0.000    0.000  1
 35   1    1  1 0 2    34  16   100  256  256     0.00000   6.86789 2.05703e-004  1311  2279   0.88  -2.16   0.09  -20.34    1.15   60.76  1.200  0.000 0 2 0 2  1.000  1.000   3.14    0.00     0.00    0.00   1    8.00     0    0    0   240   0.0  1   1    7    0   0.000    0.000    0.000  1
 36   1    1  1 0 2    35  16   100  256  256     0.00000   6.86789 2.05703e-004  1268  2205   0.88  -2.16   0.09  -20.30    1.17   59.56  1.200  0.000 0 2 0 2  1.000  1.000   3.14    0.00     0.00    0.00   1    8.00     0    0    0   240   0.0  1   1    7    0   0.000    0.000    0.000  1
 37   1    1  1 0 2    36  16   100  256  256     0.00000   6.86789 2.05703e-004  1184  2057   0.88  -2.16   0.09  -20.25    1.18   58.36  1.200  0.000 0 2 0 2  1.000  1.000   3.14    0.00     0.00    0.00   1    8.00     0    0    0   240   0.0  1   1    7    0   0.000    0.000    0.000  1
 38   1    1  1 0 2    37  16   100  256  256     0.00000   6.86789 2.05703e-004  1139  1980   0.88  -2.16   0.09  -20.21    1.20   57.16  1.200  0.000 0 2 0 2  1.000  1.000   3.14    0.00     0.00    0.00   1    8.00     0    0    0   240   0.0  1   1    7    0   0.000    0.000    0.000  1
 39   1    1  1 0 2    38  16   100  256  256     0.00000   6.86789 2.05703e-004  1082  1881   0.88  -2.16   0.09  -20.16    1.22   55.96  1.200  0.000 0 2 0 2  1.000  1.000   3.14    0.00     0.00    0.00   1    8.00     0    0    0   240   0.0  1   1    7    0   0.000    0.000    0.000  1
 40   1    1  1 0 2    39  16   100  256  256     0.00000   6.86789 2.05703e-004  1040  1808   0.88  -2.16   0.09  -20.12    1.24   54.77  1.200  0.000 0 2 0 2  1.000  1.000   3.14    0.00     0.00    0.00   1    8.00     0    0    0   240   0.0  1   1    7    0   0.000    0.000    0.000  1
 41   1    1  1 0 2    40  16   100  256  256     0.00000   6.86789 2.05703e-004  1021  1774   0.88  -2.16   0.09  -20.07    1.26   53.57  1.200  0.000 0 2 0 2  1.000  1.000   3.14    0.00     0.00    0.00   1    8.00     0    0    0   240   0.0  1   1    7    0   0.000    0.000    0.000  1
 42   1    1  1 0 2    41  16   100  256  256     0.00000   6.86789 2.05703e-004  1036  1800   0.88  -2.16   0.09  -20.03    1.28   52.37  1.200  0.000 0 2 0 2  1.000  1.000   3.14    0.00     0.00    0.00   1    8.00     0    0    0   240   0.0  1   1    7    0   0.000    0.000    0.000  1
 43   1    1  1 0 2    42  16   100  256  256     0.00000   6.86789 2.05703e-004  1059  1841   0.88  -2.16   0.09  -19.98    1.29   51.17  1.200  0.000 0 2 0 2  1.000  1.000   3.14    0.00     0.00    0.00   1    8.00     0    0    0   240   0.0  1   1    7    0   0.000    0.000    0.000  1
 44   1    1  1 0 2    43  16   100  256  256     0.00000   6.86789 2.05703e-004  1032  1794   0.88  -2.16   0.09  -19.94    1.31   49.97  1.200  0.000 0 2 0 2  1.000  1.000   3.14    0.00     0.00    0.00   1    8.00     0    0    0   240   0.0  1   1    7    0   0.000    0.000    0.000  1
 45   1    1  1 0 2    44  16   100  256  256     0.00000   6.86789 2.05703e-004  1093  1899   0.88  -2.16   0.09  -19.89    1.33   48.77  1.200  0.000 0 2 0 2  1.000  1.000   3.14    0.00     0.00    0.00   1    8.00     0    0    0   240   0.0  1   1    7    0   0.000    0.000    0.000  1
 46   1    1  1 0 2    45  16   100  256  256     0.00000   6.86789 2.05703e-004  1106  1923   0.88  -2.16   0.09  -19.85    1.35   47.57  1.200  0.000 0 2 0 2  1.000  1.000   3.14    0.00     0.00    0.00   1    8.00     0    0    0   240   0.0  1   1    7    0   0.000    0.000    0.000  1
 47   1    1  1 0 2    46  16   100  256  256     0.00000   6.86789 2.05703e-004  1096  1904   0.88  -2.16   0.09  -19.80    1.37   46.37  1.200  0.000 0 2 0 2  1.000  1.000   3.14    0.00     0.00    0.00   1    8.00     0    0    0   240   0.0  1   1    7    0   0.000    0.000    0.000  1
 48   1    1  1 0 2    47  16   100  256  256     0.00000   6.86789 2.05703e-004  1149  1997   0.88  -2.16   0.09  -19.76    1.39   45.17  1.200  0.000 0 2 0 2  1.000  1.000   3.14    0.00     0.00    0.00   1    8.00     0    0    0   240   0.0  1   1    7    0   0.000    0.000    0.000  1
 49   1    1  1 0 2    48  16   100  256  256     0.00000   6.86789 2.05703e-004  1154  2006   0.88  -2.16   0.09  -19.71    1.40   43.97  1.200  0.000 0 2 0 2  1.000  1.000   3.14    0.00     0.00    0.00   1    8.00     0    0    0   240   0.0  1   1    7    0   0.000    0.000    0.000  1
 50   1    1  1 0 2    49  16   100  256  256     0.00000   6.86789 2.05703e-004  1200  2085   0.88  -2.16   0.09  -19.67    1.42   42.78  1.200  0.000 0 2 0 2  1.000  1.000   3.14    0.00     0.00    0.00   1    8.00     0    0    0   240   0.0  1   1    7    0   0.000    0.000    0.000  1
 51   1    1  1 0 2    50  16   100  256  256     0.00000   6.86789 2.05703e-004  1208  2100   0.88  -2.16   0.09  -19.62    1.44   41.58  1.200  0.000 0 2 0 2  1.000  1.000   3.14    0.00     0.00    0.00   1    8.00     0    0    0   240   0.0  1   1    7    0   0.000    0.000    0.000  1
 52   1    1  1 0 2    51  16   100  256  256     0.00000   6.86789 2.05703e-004  1211  2105   0.88  -2.16   0.09  -19.58    1.46   40.38  1.200  0.000 0 2 0 2  1.000  1.000   3.14    0.00     0.00    0.00   1    8.00     0    0    0   240   0.0  1   1    7    0   0.000    0.000    0.000  1
 53   1    1  1 0 2    52  16   100  256  256     0.00000   6.86789 2.05703e-004  1254  2180   0.88  -2.16   0.09  -19.53    1.48   39.18  1.200  0.000 0 2 0 2  1.000  1.000   3.14    0.00     0.00    0.00   1    8.00     0    0    0   240   0.0  1   1    7    0   0.000    0.000    0.000  1
 54   1    1  1 0 2    53  16   100  256  256     0.00000   6.86789 2.05703e-004  1274  2215   0.88  -2.16   0.09  -19.49    1.50   37.98  1.200  0.000 0 2 0 2  1.000  1.000   3.14    0.00     0.00    0.00   1    8.00     0    0    0   240   0.0  1   1    7    0   0.000    0.000    0.000  1
 55   1    1  1 0 2    54  16   100  256  256     0.00000   6.86789 2.05703e-004  1319  2292   0.88  -2.16   0.09  -19.44    1.52   36.78  1.200  0.000 0 2 0 2  1.000  1.000   3.14    0.00     0.00    0.00   1    8.00     0    0    0   240   0.0  1   1    7    0   0.000    0.000    0.000  1
 56   1    1  1 0 2    55  16   100  256  256     0.00000   6.86789 2.05703e-004  1307  2273   0.88  -2.16   0.09  -19.39    1.53   35.58  1.200  0.000 0 2 0 2  1.000  1.000   3.14    0.00     0.00    0.00   1    8.00     0    0    0   240   0.0  1   1    7    0   0.000    0.000    0.000  1
 57   1    1  1 0 2    56  16   100  256  256     0.00000   6.86789 2.05703e-004  1280  2225   0.88  -2.16   0.09  -19.35    1.55   34.38  1.200  0.000 0 2 0 2  1.000  1.000   3.14    0.00     0.00    0.00   1    8.00     0    0    0   240   0.0  1   1    7    0   0.000    0.000    0.000  1
 58   1    1  1 0 2    57  16   100  256  256     0.00000   6.86789 2.05703e-004  1284  2232   0.88  -2.16   0.09  -19.30    1.57   33.18  1.200  0.000 0 2 0 2  1.000  1.000   3.14    0.00     0.00    0.00   1    8.00     0    0    0   240   0.0  1   1    7    0   0.000    0.000    0.000  1
 59   1    1  1 0 2    58  16   100  256  256     0.00000   6.86789 2.05703e-004  1280  2225   0.88  -2.16   0.09  -19.26    1.59   31.98  1.200  0.000 0 2 0 2  1.000  1.000   3.14    0.00     0.00    0.00   1    8.00     0    0    0   240   0.0  1   1    7    0   0.000    0.000    0.000  1
 60   1    1  1 0 2    59  16   100  256  256     0.00000   6.86789 2.05703e-004  1260  2190   0.88  -2.16   0.09  -19.21    1.61   30.79  1.200  0.000 0 2 0 2  1.000  1.000   3.14    0.00     0.00    0.00   1    8.00     0    0    0   240   0.0  1   1    7    0   0.000    0.000    0.000  1
 61   1    1  1 0 2    60  16   100  256  256     0.00000   6.86789 2.05703e-004  1218  2117   0.88  -2.16   0.09  -19.17    1.63   29.59  1.200  0.000 0 2 0 2  1.000  1.000   3.14    0.00     0.00    0.00   1    8.00     0    0    0   240   0.0  1   1    7    0   0.000    0.000    0.000  1
 62   1    1  1 0 2    61  16   100  256  256     0.00000   6.86789 2.05703e-004  1573  2734   0.88  -2.16   0.09  -19.12    1.64   28.39  1.200  0.000 0 2 0 2  1.000  1.000   3.14    0.00     0.00    0.00   1    8.00     0    0    0   240   0.0  1   1    7    0   0.000    0.000    0.000  1
 63   1    1  1 0 2    62  16   100  256  256     0.00000   6.86789 2.05703e-004  1904  3310   0.88  -2.16   0.09  -19.08    1.66   27.19  1.200  0.000 0 2 0 2  1.000  1.000   3.14    0.00     0.00    0.00   1    8.00     0    0    0   240   0.0  1   1    7    0   0.000    0.000    0.000  1
 64   1    1  1 0 2    63  16   100  256  256     0.00000   6.86789 2.05703e-004  2184  3796   0.88  -2.16   0.09  -19.03    1.68   25.99  1.200  0.000 0 2 0 2  1.000  1.000   3.14    0.00     0.00    0.00   1    8.00     0    0    0   240   0.0  1   1    7    0   0.000    0.000    0.000  1
 65   1    1  1 0 2    64  16   100  256  256     0.00000   6.86789 2.05703e-004  2342  4072   0.88  -2.16   0.09  -18.99    1.70   24.79  1.200  0.000 0 2 0 2  1.000  1.000   3.14    0.00     0.00    0.00   1    8.00     0    0    0   240   0.0  1   1    7    0   0.000    0.000    0.000  1
 66   1    1  1 0 2    65  16   100  256  256     0.00000   6.86789 2.05703e-004  2028  3525   0.88  -2.16   0.09  -18.94    1.72   23.59  1.200  0.000 0 2 0 2  1.000  1.000   3.14    0.00     0.00    0.00   1    8.00     0    0    0   240   0.0  1   1    7    0   0.000    0.000    0.000  1
 67   1    1  1 0 2    66  16   100  256  256     0.00000   6.86789 2.05703e-004  1976  3435   0.88  -2.16   0.09  -18.90    1.74   22.39  1.200  0.000 0 2 0 2  1.000  1.000   3.14    0.00     0.00    0.00   1    8.00     0    0    0   240   0.0  1   1    7    0   0.000    0.000    0.000  1
 68   1    1  1 0 2    67  16   100  256  256     0.00000   6.86789 2.05703e-004  1652  2872   0.88  -2.16   0.09  -18.85    1.75   21.19  1.200  0.000 0 2 0 2  1.000  1.000   3.14    0.00     0.00    0.00   1    8.00     0    0    0   240   0.0  1   1    7    0   0.000    0.000    0.000  1
 69   1    1  1 0 2    68  16   100  256  256     0.00000   6.86789 2.05703e-004  1430  2486   0.88  -2.16   0.09  -18.81    1.77   19.99  1.200  0.000 0 2 0 2  1.000  1.000   3.14    0.00     0.00    0.00   1    8.00     0    0    0   240   0.0  1   1    7    0   0.000    0.000    0.000  1
 70   1    1  1 0 2    69  16   100  256  256     0.00000   6.86789 2.05703e-004  1480  2572   0.88  -2.16   0.09  -18.76    1.79   18.80  1.200  0.000 0 2 0 2  1.000  1.000   3.14    0.00     0.00    0.00   1    8.00     0    0    0   240   0.0  1   1    7    0   0.000    0.000    0.000  1
 71   1    1  1 0 2    70  16   100  256  256     0.00000   6.86789 2.05703e-004  1427  2481   0.88  -2.16   0.09  -18.72    1.81   17.60  1.200  0.000 0 2 0 2  1.000  1.000   3.14    0.00     0.00    0.00   1    8.00     0    0    0   240   0.0  1   1    7    0   0.000    0.000    0.000  1
 72   1    1  1 0 2    71  16   100  256  256     0.00000   6.86789 2.05703e-004  1437  2499   0.88  -2.16   0.09  -18.67    1.83   16.40  1.200  0.000 0 2 0 2  1.000  1.000   3.14    0.00     0.00    0.00   1    8.00     0    0    0   240   0.0  1   1    7    0   0.000    0.000    0.000  1
 73   1    1  1 0 2    72  16   100  256  256     0.00000   6.86789 2.05703e-004  1383  2403   0.88  -2.16   0.09  -18.63    1.85   15.20  1.200  0.000 0 2 0 2  1.000  1.000   3.14    0.00     0.00    0.00   1    8.00     0    0    0   240   0.0  1   1    7    0   0.000    0.000    0.000  1
 74   1    1  1 0 2    73  16   100  256  256     0.00000   6.86789 2.05703e-004  1438  2500   0.88  -2.16   0.09  -18.58    1.87   14.00  1.200  0.000 0 2 0 2  1.000  1.000   3.14    0.00     0.00    0.00   1    8.00     0    0    0   240   0.0  1   1    7    0   0.000    0.000    0.000  1
 75   1    1  1 0 2    74  16   100  256  256     0.00000   6.86789 2.05703e-004  1131  1966   0.88  -2.16   0.09  -18.54    1.88   12.80  1.200  0.000 0 2 0 2  1.000  1.000   3.14    0.00     0.00    0.00   1    8.00     0    0    0   240   0.0  1   1    7    0   0.000    0.000    0.000  1
 76   1    1  1 0 2    75  16   100  256  256     0.00000   6.86789 2.05703e-004  1331  2314   0.88  -2.16   0.09  -18.49    1.90   11.60  1.200  0.000 0 2 0 2  1.000  1.000   3.14    0.00     0.00    0.00   1    8.00     0    0    0   240   0.0  1   1    7    0   0.000    0.000    0.000  1
 77   1    1  1 0 2    76  16   100  256  256     0.00000   6.86789 2.05703e-004  1499  2606   0.88  -2.16   0.09  -18.45    1.92   10.40  1.200  0.000 0 2 0 2  1.000  1.000   3.14    0.00     0.00    0.00   1    8.00     0    0    0   240   0.0  1   1    7    0   0.000    0.000    0.000  1
 78   1    1  1 0 2    77  16   100  256  256     0.00000   6.86789 2.05703e-004  1495  2599   0.88  -2.16   0.09  -18.40    1.94    9.20  1.200  0.000 0 2 0 2  1.000  1.000   3.14    0.00     0.00    0.00   1    8.00     0    0    0   240   0.0  1   1    7    0   0.000    0.000    0.000  1
 79   1    1  1 0 2    78  16   100  256  256     0.00000   6.86789 2.05703e-004  1309  2275   0.88  -2.16   0.09  -18.36    1.96    8.00  1.200  0.000 0 2 0 2  1.000  1.000   3.14    0.00     0.00    0.00   1    8.00     0    0    0   240   0.0  1   1    7    0   0.000    0.000    0.000  1
 80   1    1  1 0 2    79  16   100  256  256     0.00000   6.86789 2.05703e-004  1103  1918   0.88  -2.16   0.09  -18.31    1.98    6.81  1.200  0.000 0 2 0 2  1.000  1.000   3.14    0.00     0.00    0.00   1    8.00     0    0    0   240   0.0  1   1    7    0   0.000    0.000    0.000  1
 81   1    1  1 0 2    80  16   100  256  256     0.00000   6.86789 2.05703e-004  1099  1910   0.88  -2.16   0.09  -18.27    1.99    5.61  1.200  0.000 0 2 0 2  1.000  1.000   3.14    0.00     0.00    0.00   1    8.00     0    0    0   240   0.0  1   1    7    0   0.000    0.000    0.000  1
 82   1    1  1 0 2    81  16   100  256  256     0.00000   6.86789 2.05703e-004  1139  1980   0.88  -2.16   0.09  -18.22    2.01    4.41  1.200  0.000 0 2 0 2  1.000  1.000   3.14    0.00     0.00    0.00   1    8.00     0    0    0   240   0.0  1   1    7    0   0.000    0.000    0.000  1
 83   1    1  1 0 2    82  16   100  256  256     0.00000   6.86789 2.05703e-004  1162  2020   0.88  -2.16   0.09  -18.18    2.03    3.21  1.200  0.000 0 2 0 2  1.000  1.000   3.14    0.00     0.00    0.00   1    8.00     0    0    0   240   0.0  1   1    7    0   0.000    0.000    0.000  1
 84   1    1  1 0 2    83  16   100  256  256     0.00000   6.86789 2.05703e-004  1069  1858   0.88  -2.16   0.09  -18.13    2.05    2.01  1.200  0.000 0 2 0 2  1.000  1.000   3.14    0.00     0.00    0.00   1    8.00     0    0    0   240   0.0  1   1    7    0   0.000    0.000    0.000  1
