# === DATA DESCRIPTION FILE ======================================================
#
# CAUTION - Investigational device.
# Limited by Federal Law to investigational use.
#
#
# CLINICAL TRYOUT             Research image export tool     V4.2
#
# === GENERAL INFORMATION ========================================================
#
.    Protocol name                      :   WIP T2W_VISTA_2mmiso_fatsat SENSE
.    Series Type                        :   Image   MRSERIES
.    Acquisition nr                     :   15
.    Reconstruction nr                  :   1
.    Scan Duration [sec]                :   108
.    Max. number of cardiac phases      :   1
.    Max. number of echoes              :   1
.    Max. number of slices/locations    :   180
.    Max. number of dynamics            :   1
.    Max. number of mixes               :   1
.    Patient position                   :   Head First Supine
.    Preparation direction              :   Anterior-Posterior
.    Technique                          :   TSE
.    Scan resolution  (x, y)            :   120  118
.    Scan mode                          :   3D
.    Repetition time [ms]               :   2500.000  
.    FOV (ap,fh,rl) [mm]                :   240.000  200.000  180.000
.    Water Fat shift [pixels]           :   1.050
.    Angulation midslice(ap,fh,rl)[degr]:   0.877  -2.157  0.095
.    Off Centre midslice(ap,fh,rl) [mm] :   -18.063  2.077  0.210
.    Flow compensation <0=no 1=yes> ?   :   0
.    Presaturation     <0=no 1=yes> ?   :   0
.    Phase encoding velocity [cm/sec]   :   0.000000  0.000000  0.000000
.    MTC               <0=no 1=yes> ?   :   0
.    SPIR              <0=no 1=yes> ?   :   1
.    EPI factor        <0,1=no EPI>     :   1
.    Dynamic scan      <0=no 1=yes> ?   :   0
.    Diffusion         <0=no 1=yes> ?   :   0
.    Diffusion echo time [ms]           :   0.0000
.    Max. number of diffusion values    :   1
.    Max. number of gradient orients    :   1
.    Number of label types   <0=no ASL> :   0
#
# === PIXEL VALUES =============================================================
#  PV = pixel value in REC file, FP = floating point value, DV = displayed value on console
#  RS = rescale slope,           RI = rescale intercept,    SS = scale slope
#  DV = PV * RS + RI             FP = DV / (RS * SS)
#
# === IMAGE INFORMATION DEFINITION =============================================
#  The rest of this file contains ONE line per image, this line contains the following information:
#
#  slice number                             (integer)
#  echo number                              (integer)
#  dynamic scan number                      (integer)
#  cardiac phase number                     (integer)
#  image_type_mr                            (integer)
#  scanning sequence                        (integer)
#  index in REC file (in images)            (integer)
#  image pixel size (in bits)               (integer)
#  scan percentage                          (integer)
#  recon resolution (x y)                   (2*integer)
#  rescale intercept                        (float)
#  rescale slope                            (float)
#  scale slope                              (float)
#  window center                            (integer)
#  window width                             (integer)
#  image angulation (ap,fh,rl in degrees )  (3*float)
#  image offcentre (ap,fh,rl in mm )        (3*float)
#  slice thickness (in mm )                 (float)
#  slice gap (in mm )                       (float)
#  image_display_orientation                (integer)
#  slice orientation ( TRA/SAG/COR )        (integer)
#  fmri_status_indication                   (integer)
#  image_type_ed_es  (end diast/end syst)   (integer)
#  pixel spacing (x,y) (in mm)              (2*float)
#  echo_time                                (float)
#  dyn_scan_begin_time                      (float)
#  trigger_time                             (float)
#  diffusion_b_factor                       (float)
#  number of averages                       (integer)
#  image_flip_angle (in degrees)            (float)
#  cardiac frequency   (bpm)                (integer)
#  minimum RR-interval (in ms)              (integer)
#  maximum RR-interval (in ms)              (integer)
#  TURBO factor  <0=no turbo>               (integer)
#  Inversion delay (in ms)                  (float)
#  diffusion b value number    (imagekey!)  (integer)
#  gradient orientation number (imagekey!)  (integer)
#  contrast type                            (string)
#  diffusion anisotropy type                (string)
#  diffusion (ap, fh, rl)                   (3*float)
#  label type (ASL)            (imagekey!)  (integer)
#
# === IMAGE INFORMATION ==========================================================
#  sl ec  dyn ph ty    idx pix scan% rec size                (re)scale              window        angulation              offcentre        thick   gap   info      spacing     echo     dtime   ttime    diff  avg  flip    freq   RR-int  turbo delay b grad cont anis         diffusion       L.ty

  1   1    1  1 0 1     0  16    77  256  256     0.00000   1.37387 1.50467e-004    55    96   0.88  -2.16   0.09  -21.43    0.70   89.64  2.000 -1.000 0 2 0 2  0.943  0.943 287.22    0.00     0.00    0.00   2   90.00     0    0    0   100   0.0  1   1    8    0   0.000    0.000    0.000  1
  2   1    1  1 0 1     1  16    77  256  256     0.00000   1.37387 1.50467e-004    73   127   0.88  -2.16   0.09  -21.39    0.72   88.64  2.000 -1.000 0 2 0 2  0.943  0.943 287.22    0.00     0.00    0.00   2   90.00     0    0    0   100   0.0  1   1    8    0   0.000    0.000    0.000  1
  3   1    1  1 0 1     2  16    77  256  256     0.00000   1.37387 1.50467e-004    74   129   0.88  -2.16   0.09  -21.35    0.73   87.64  2.000 -1.000 0 2 0 2  0.943  0.943 287.22    0.00     0.00    0.00   2   90.00     0    0    0   100   0.0  1   1    8    0   0.000    0.000    0.000  1
  4   1    1  1 0 1     3  16    77  256  256     0.00000   1.37387 1.50467e-004    73   127   0.88  -2.16   0.09  -21.32    0.75   86.64  2.000 -1.000 0 2 0 2  0.943  0.943 287.22    0.00     0.00    0.00   2   90.00     0    0    0   100   0.0  1   1    8    0   0.000    0.000    0.000  1
  5   1    1  1 0 1     4  16    77  256  256     0.00000   1.37387 1.50467e-004    74   128   0.88  -2.16   0.09  -21.28    0.76   85.64  2.000 -1.000 0 2 0 2  0.943  0.943 287.22    0.00     0.00    0.00   2   90.00     0    0    0   100   0.0  1   1    8    0   0.000    0.000    0.000  1
  6   1    1  1 0 1     5  16    77  256  256     0.00000   1.37387 1.50467e-004    83   144   0.88  -2.16   0.09  -21.24    0.78   84.64  2.000 -1.000 0 2 0 2  0.943  0.943 287.22    0.00     0.00    0.00   2   90.00     0    0    0   100   0.0  1   1    8    0   0.000    0.000    0.000  1
  7   1    1  1 0 1     6  16    77  256  256     0.00000   1.37387 1.50467e-004    93   161   0.88  -2.16   0.09  -21.20    0.79   83.64  2.000 -1.000 0 2 0 2  0.943  0.943 287.22    0.00     0.00    0.00   2   90.00     0    0    0   100   0.0  1   1    8    0   0.000    0.000    0.000  1
  8   1    1  1 0 1     7  16    77  256  256     0.00000   1.37387 1.50467e-004   105   182   0.88  -2.16   0.09  -21.17    0.81   82.64  2.000 -1.000 0 2 0 2  0.943  0.943 287.22    0.00     0.00    0.00   2   90.00     0    0    0   100   0.0  1   1    8    0   0.000    0.000    0.000  1
  9   1    1  1 0 1     8  16    77  256  256     0.00000   1.37387 1.50467e-004   114   199   0.88  -2.16   0.09  -21.13    0.83   81.64  2.000 -1.000 0 2 0 2  0.943  0.943 287.22    0.00     0.00    0.00   2   90.00     0    0    0   100   0.0  1   1    8    0   0.000    0.000    0.000  1
 10   1    1  1 0 1     9  16    77  256  256     0.00000   1.37387 1.50467e-004   125   217   0.88  -2.16   0.09  -21.09    0.84   80.64  2.000 -1.000 0 2 0 2  0.943  0.943 287.22    0.00     0.00    0.00   2   90.00     0    0    0   100   0.0  1   1    8    0   0.000    0.000    0.000  1
 11   1    1  1 0 1    10  16    77  256  256     0.00000   1.37387 1.50467e-004   126   219   0.88  -2.16   0.09  -21.05    0.86   79.64  2.000 -1.000 0 2 0 2  0.943  0.943 287.22    0.00     0.00    0.00   2   90.00     0    0    0   100   0.0  1   1    8    0   0.000    0.000    0.000  1
 12   1    1  1 0 1    11  16    77  256  256     0.00000   1.37387 1.50467e-004   139   241   0.88  -2.16   0.09  -21.02    0.87   78.65  2.000 -1.000 0 2 0 2  0.943  0.943 287.22    0.00     0.00    0.00   2   90.00     0    0    0   100   0.0  1   1    8    0   0.000    0.000    0.000  1
 13   1    1  1 0 1    12  16    77  256  256     0.00000   1.37387 1.50467e-004   132   230   0.88  -2.16   0.09  -20.98    0.89   77.65  2.000 -1.000 0 2 0 2  0.943  0.943 287.22    0.00     0.00    0.00   2   90.00     0    0    0   100   0.0  1   1    8    0   0.000    0.000    0.000  1
 14   1    1  1 0 1    13  16    77  256  256     0.00000   1.37387 1.50467e-004   134   232   0.88  -2.16   0.09  -20.94    0.90   76.65  2.000 -1.000 0 2 0 2  0.943  0.943 287.22    0.00     0.00    0.00   2   90.00     0    0    0   100   0.0  1   1    8    0   0.000    0.000    0.000  1
 15   1    1  1 0 1    14  16    77  256  256     0.00000   1.37387 1.50467e-004   140   243   0.88  -2.16   0.09  -20.90    0.92   75.65  2.000 -1.000 0 2 0 2  0.943  0.943 287.22    0.00     0.00    0.00   2   90.00     0    0    0   100   0.0  1   1    8    0   0.000    0.000    0.000  1
 16   1    1  1 0 1    15  16    77  256  256     0.00000   1.37387 1.50467e-004   143   248   0.88  -2.16   0.09  -20.87    0.93   74.65  2.000 -1.000 0 2 0 2  0.943  0.943 287.22    0.00     0.00    0.00   2   90.00     0    0    0   100   0.0  1   1    8    0   0.000    0.000    0.000  1
 17   1    1  1 0 1    16  16    77  256  256     0.00000   1.37387 1.50467e-004   156   272   0.88  -2.16   0.09  -20.83    0.95   73.65  2.000 -1.000 0 2 0 2  0.943  0.943 287.22    0.00     0.00    0.00   2   90.00     0    0    0   100   0.0  1   1    8    0   0.000    0.000    0.000  1
 18   1    1  1 0 1    17  16    77  256  256     0.00000   1.37387 1.50467e-004   165   287   0.88  -2.16   0.09  -20.79    0.96   72.65  2.000 -1.000 0 2 0 2  0.943  0.943 287.22    0.00     0.00    0.00   2   90.00     0    0    0   100   0.0  1   1    8    0   0.000    0.000    0.000  1
 19   1    1  1 0 1    18  16    77  256  256     0.00000   1.37387 1.50467e-004   166   289   0.88  -2.16   0.09  -20.75    0.98   71.65  2.000 -1.000 0 2 0 2  0.943  0.943 287.22    0.00     0.00    0.00   2   90.00     0    0    0   100   0.0  1   1    8    0   0.000    0.000    0.000  1
 20   1    1  1 0 1    19  16    77  256  256     0.00000   1.37387 1.50467e-004   196   340   0.88  -2.16   0.09  -20.72    0.99   70.65  2.000 -1.000 0 2 0 2  0.943  0.943 287.22    0.00     0.00    0.00   2   90.00     0    0    0   100   0.0  1   1    8    0   0.000    0.000    0.000  1
 21   1    1  1 0 1    20  16    77  256  256     0.00000   1.37387 1.50467e-004   267   465   0.88  -2.16   0.09  -20.68    1.01   69.65  2.000 -1.000 0 2 0 2  0.943  0.943 287.22    0.00     0.00    0.00   2   90.00     0    0    0   100   0.0  1   1    8    0   0.000    0.000    0.000  1
 22   1    1  1 0 1    21  16    77  256  256     0.00000   1.37387 1.50467e-004   350   609   0.88  -2.16   0.09  -20.64    1.03   68.65  2.000 -1.000 0 2 0 2  0.943  0.943 287.22    0.00     0.00    0.00   2   90.00     0    0    0   100   0.0  1   1    8    0   0.000    0.000    0.000  1
 23   1    1  1 0 1    22  16    77  256  256     0.00000   1.37387 1.50467e-004   413   717   0.88  -2.16   0.09  -20.60    1.04   67.65  2.000 -1.000 0 2 0 2  0.943  0.943 287.22    0.00     0.00    0.00   2   90.00     0    0    0   100   0.0  1   1    8    0   0.000    0.000    0.000  1
 24   1    1  1 0 1    23  16    77  256  256     0.00000   1.37387 1.50467e-004   469   816   0.88  -2.16   0.09  -20.56    1.06   66.66  2.000 -1.000 0 2 0 2  0.943  0.943 287.22    0.00     0.00    0.00   2   90.00     0    0    0   100   0.0  1   1    8    0   0.000    0.000    0.000  1
 25   1    1  1 0 1    24  16    77  256  256     0.00000   1.37387 1.50467e-004   524   911   0.88  -2.16   0.09  -20.53    1.07   65.66  2.000 -1.000 0 2 0 2  0.943  0.943 287.22    0.00     0.00    0.00   2   90.00     0    0    0   100   0.0  1   1    8    0   0.000    0.000    0.000  1
 26   1    1  1 0 1    25  16    77  256  256     0.00000   1.37387 1.50467e-004   580  1009   0.88  -2.16   0.09  -20.49    1.09   64.66  2.000 -1.000 0 2 0 2  0.943  0.943 287.22    0.00     0.00    0.00   2   90.00     0    0    0   100   0.0  1   1    8    0   0.000    0.000    0.000  1
 27   1    1  1 0 1    26  16    77  256  256     0.00000   1.37387 1.50467e-004   639  1111   0.88  -2.16   0.09  -20.45    1.10   63.66  2.000 -1.000 0 2 0 2  0.943  0.943 287.22    0.00     0.00    0.00   2   90.00     0    0    0   100   0.0  1   1    8    0   0.000    0.000    0.000  1
 28   1    1  1 0 1    27  16    77  256  256     0.00000   1.37387 1.50467e-004   745  1295   0.88  -2.16   0.09  -20.41    1.12   62.66  2.000 -1.000 0 2 0 2  0.943  0.943 287.22    0.00     0.00    0.00   2   90.00     0    0    0   100   0.0  1   1    8    0   0.000    0.000    0.000  1
 29   1    1  1 0 1    28  16    77  256  256     0.00000   1.37387 1.50467e-004   789  1372   0.88  -2.16   0.09  -20.38    1.13   61.66  2.000 -1.000 0 2 0 2  0.943  0.943 287.22    0.00     0.00    0.00   2   90.00     0    0    0   100   0.0  1   1    8    0   0.000    0.000    0.000  1
 30   1    1  1 0 1    29  16    77  256  256     0.00000   1.37387 1.50467e-004   791  1374   0.88  -2.16   0.09  -20.34    1.15   60.66  2.000 -1.000 0 2 0 2  0.943  0.943 287.22    0.00     0.00    0.00   2   90.00     0    0    0   100   0.0  1   1    8    0   0.000    0.000    0.000  1
 31   1    1  1 0 1    30  16    77  256  256     0.00000   1.37387 1.50467e-004   790  1374   0.88  -2.16   0.09  -20.30    1.16   59.66  2.000 -1.000 0 2 0 2  0.943  0.943 287.22    0.00     0.00    0.00   2   90.00     0    0    0   100   0.0  1   1    8    0   0.000    0.000    0.000  1
 32   1    1  1 0 1    31  16    77  256  256     0.00000   1.37387 1.50467e-004   770  1338   0.88  -2.16   0.09  -20.26    1.18   58.66  2.000 -1.000 0 2 0 2  0.943  0.943 287.22    0.00     0.00    0.00   2   90.00     0    0    0   100   0.0  1   1    8    0   0.000    0.000    0.000  1
 33   1    1  1 0 1    32  16    77  256  256     0.00000   1.37387 1.50467e-004   781  1357   0.88  -2.16   0.09  -20.23    1.19   57.66  2.000 -1.000 0 2 0 2  0.943  0.943 287.22    0.00     0.00    0.00   2   90.00     0    0    0   100   0.0  1   1    8    0   0.000    0.000    0.000  1
 34   1    1  1 0 1    33  16    77  256  256     0.00000   1.37387 1.50467e-004   740  1287   0.88  -2.16   0.09  -20.19    1.21   56.66  2.000 -1.000 0 2 0 2  0.943  0.943 287.22    0.00     0.00    0.00   2   90.00     0    0    0   100   0.0  1   1    8    0   0.000    0.000    0.000  1
 35   1    1  1 0 1    34  16    77  256  256     0.00000   1.37387 1.50467e-004   718  1248   0.88  -2.16   0.09  -20.15    1.22   55.66  2.000 -1.000 0 2 0 2  0.943  0.943 287.22    0.00     0.00    0.00   2   90.00     0    0    0   100   0.0  1   1    8    0   0.000    0.000    0.000  1
 36   1    1  1 0 1    35  16    77  256  256     0.00000   1.37387 1.50467e-004   699  1215   0.88  -2.16   0.09  -20.11    1.24   54.67  2.000 -1.000 0 2 0 2  0.943  0.943 287.22    0.00     0.00    0.00   2   90.00     0    0    0   100   0.0  1   1    8    0   0.000    0.000    0.000  1
 37   1    1  1 0 1    36  16    77  256  256     0.00000   1.37387 1.50467e-004   723  1257   0.88  -2.16   0.09  -20.08    1.26   53.67  2.000 -1.000 0 2 0 2  0.943  0.943 287.22    0.00     0.00    0.00   2   90.00     0    0    0   100   0.0  1   1    8    0   0.000    0.000    0.000  1
 38   1    1  1 0 1    37  16    77  256  256     0.00000   1.37387 1.50467e-004   719  1249   0.88  -2.16   0.09  -20.04    1.27   52.67  2.000 -1.000 0 2 0 2  0.943  0.943 287.22    0.00     0.00    0.00   2   90.00     0    0    0   100   0.0  1   1    8    0   0.000    0.000    0.000  1
 39   1    1  1 0 1    38  16    77  256  256     0.00000   1.37387 1.50467e-004   689  1198   0.88  -2.16   0.09  -20.00    1.29   51.67  2.000 -1.000 0 2 0 2  0.943  0.943 287.22    0.00     0.00    0.00   2   90.00     0    0    0   100   0.0  1   1    8    0   0.000    0.000    0.000  1
 40   1    1  1 0 1    39  16    77  256  256     0.00000   1.37387 1.50467e-004   663  1153   0.88  -2.16   0.09  -19.96    1.30   50.67  2.000 -1.000 0 2 0 2  0.943  0.943 287.22    0.00     0.00    0.00   2   90.00     0    0    0   100   0.0  1   1    8    0   0.000    0.000    0.000  1
 41   1    1  1 0 1    40  16    77  256  256     0.00000   1.37387 1.50467e-004   642  1116   0.88  -2.16   0.09  -19.93    1.32   49.67  2.000 -1.000 0 2 0 2  0.943  0.943 287.22    0.00     0.00    0.00   2   90.00     0    0    0   100   0.0  1   1    8    0   0.000    0.000    0.000  1
 42   1    1  1 0 1    41  16    77  256  256     0.00000   1.37387 1.50467e-004   829  1441   0.88  -2.16   0.09  -19.89    1.33   48.67  2.000 -1.000 0 2 0 2  0.943  0.943 287.22    0.00     0.00    0.00   2   90.00     0    0    0   100   0.0  1   1    8    0   0.000    0.000    0.000  1
 43   1    1  1 0 1    42  16    77  256  256     0.00000   1.37387 1.50467e-004  1006  1748   0.88  -2.16   0.09  -19.85    1.35   47.67  2.000 -1.000 0 2 0 2  0.943  0.943 287.22    0.00     0.00    0.00   2   90.00     0    0    0   100   0.0  1   1    8    0   0.000    0.000    0.000  1
 44   1    1  1 0 1    43  16    77  256  256     0.00000   1.37387 1.50467e-004  1027  1785   0.88  -2.16   0.09  -19.81    1.36   46.67  2.000 -1.000 0 2 0 2  0.943  0.943 287.22    0.00     0.00    0.00   2   90.00     0    0    0   100   0.0  1   1    8    0   0.000    0.000    0.000  1
 45   1    1  1 0 1    44  16    77  256  256     0.00000   1.37387 1.50467e-004  1026  1784   0.88  -2.16   0.09  -19.77    1.38   45.67  2.000 -1.000 0 2 0 2  0.943  0.943 287.22    0.00     0.00    0.00   2   90.00     0    0    0   100   0.0  1   1    8    0   0.000    0.000    0.000  1
 46   1    1  1 0 1    45  16    77  256  256     0.00000   1.37387 1.50467e-004  1026  1784   0.88  -2.16   0.09  -19.74    1.39   44.67  2.000 -1.000 0 2 0 2  0.943  0.943 287.22    0.00     0.00    0.00   2   90.00     0    0    0   100   0.0  1   1    8    0   0.000    0.000    0.000  1
 47   1    1  1 0 1    46  16    77  256  256     0.00000   1.37387 1.50467e-004  1011  1758   0.88  -2.16   0.09  -19.70    1.41   43.67  2.000 -1.000 0 2 0 2  0.943  0.943 287.22    0.00     0.00    0.00   2   90.00     0    0    0   100   0.0  1   1    8    0   0.000    0.000    0.000  1
 48   1    1  1 0 1    47  16    77  256  256     0.00000   1.37387 1.50467e-004  1036  1802   0.88  -2.16   0.09  -19.66    1.42   42.68  2.000 -1.000 0 2 0 2  0.943  0.943 287.22    0.00     0.00    0.00   2   90.00     0    0    0   100   0.0  1   1    8    0   0.000    0.000    0.000  1
 49   1    1  1 0 1    48  16    77  256  256     0.00000   1.37387 1.50467e-004  1042  1811   0.88  -2.16   0.09  -19.62    1.44   41.68  2.000 -1.000 0 2 0 2  0.943  0.943 287.22    0.00     0.00    0.00   2   90.00     0    0    0   100   0.0  1   1    8    0   0.000    0.000    0.000  1
 50   1    1  1 0 1    49  16    77  256  256     0.00000   1.37387 1.50467e-004  1048  1822   0.88  -2.16   0.09  -19.59    1.46   40.68  2.000 -1.000 0 2 0 2  0.943  0.943 287.22    0.00     0.00    0.00   2   90.00     0    0    0   100   0.0  1   1    8    0   0.000    0.000    0.000  1
 51   1    1  1 0 1    50  16    77  256  256     0.00000   1.37387 1.50467e-004  1042  1812   0.88  -2.16   0.09  -19.55    1.47   39.68  2.000 -1.000 0 2 0 2  0.943  0.943 287.22    0.00     0.00    0.00   2   90.00     0    0    0   100   0.0  1   1    8    0   0.000    0.000    0.000  1
 52   1    1  1 0 1    51  16    77  256  256     0.00000   1.37387 1.50467e-004  1027  1786   0.88  -2.16   0.09  -19.51    1.49   38.68  2.000 -1.000 0 2 0 2  0.943  0.943 287.22    0.00     0.00    0.00   2   90.00     0    0    0   100   0.0  1   1    8    0   0.000    0.000    0.000  1
 53   1    1  1 0 1    52  16    77  256  256     0.00000   1.37387 1.50467e-004  1031  1792   0.88  -2.16   0.09  -19.47    1.50   37.68  2.000 -1.000 0 2 0 2  0.943  0.943 287.22    0.00     0.00    0.00   2   90.00     0    0    0   100   0.0  1   1    8    0   0.000    0.000    0.000  1
 54   1    1  1 0 1    53  16    77  256  256     0.00000   1.37387 1.50467e-004  1033  1795   0.88  -2.16   0.09  -19.44    1.52   36.68  2.000 -1.000 0 2 0 2  0.943  0.943 287.22    0.00     0.00    0.00   2   90.00     0    0    0   100   0.0  1   1    8    0   0.000    0.000    0.000  1
 55   1    1  1 0 1    54  16    77  256  256     0.00000   1.37387 1.50467e-004  1041  1810   0.88  -2.16   0.09  -19.40    1.53   35.68  2.000 -1.000 0 2 0 2  0.943  0.943 287.22    0.00     0.00    0.00   2   90.00     0    0    0   100   0.0  1   1    8    0   0.000    0.000    0.000  1
 56   1    1  1 0 1    55  16    77  256  256     0.00000   1.37387 1.50467e-004  1041  1809   0.88  -2.16   0.09  -19.36    1.55   34.68  2.000 -1.000 0 2 0 2  0.943  0.943 287.22    0.00     0.00    0.00   2   90.00     0    0    0   100   0.0  1   1    8    0   0.000    0.000    0.000  1
 57   1    1  1 0 1    56  16    77  256  256     0.00000   1.37387 1.50467e-004  1050  1825   0.88  -2.16   0.09  -19.32    1.56   33.68  2.000 -1.000 0 2 0 2  0.943  0.943 287.22    0.00     0.00    0.00   2   90.00     0    0    0   100   0.0  1   1    8    0   0.000    0.000    0.000  1
 58   1    1  1 0 1    57  16    77  256  256     0.00000   1.37387 1.50467e-004  1064  1850   0.88  -2.16   0.09  -19.29    1.58   32.68  2.000 -1.000 0 2 0 2  0.943  0.943 287.22    0.00     0.00    0.00   2   90.00     0    0    0   100   0.0  1   1    8    0   0.000    0.000    0.000  1
 59   1    1  1 0 1    58  16    77  256  256     0.00000   1.37387 1.50467e-004  1066  1853   0.88  -2.16   0.09  -19.25    1.59   31.68  2.000 -1.000 0 2 0 2  0.943  0.943 287.22    0.00     0.00    0.00   2   90.00     0    0    0   100   0.0  1   1    8    0   0.000    0.000    0.000  1
 60   1    1  1 0 1    59  16    77  256  256     0.00000   1.37387 1.50467e-004  1072  1864   0.88  -2.16   0.09  -19.21    1.61   30.69  2.000 -1.000 0 2 0 2  0.943  0.943 287.22    0.00     0.00    0.00   2   90.00     0    0    0   100   0.0  1   1    8    0   0.000    0.000    0.000  1
 61   1    1  1 0 1    60  16    77  256  256     0.00000   1.37387 1.50467e-004  1075  1868   0.88  -2.16   0.09  -19.17    1.62   29.69  2.000 -1.000 0 2 0 2  0.943  0.943 287.22    0.00     0.00    0.00   2   90.00     0    0    0   100   0.0  1   1    8    0   0.000    0.000    0.000  1
 62   1    1  1 0 1    61  16    77  256  256     0.00000   1.37387 1.50467e-004  1078  1874   0.88  -2.16   0.09  -19.14    1.64   28.69  2.000 -1.000 0 2 0 2  0.943  0.943 287.22    0.00     0.00    0.00   2   90.00     0    0    0   100   0.0  1   1    8    0   0.000    0.000    0.000  1
 63   1    1  1 0 1    62  16    77  256  256     0.00000   1.37387 1.50467e-004  1107  1924   0.88  -2.16   0.09  -19.10    1.65   27.69  2.000 -1.000 0 2 0 2  0.943  0.943 287.22    0.00     0.00    0.00   2   90.00     0    0    0   100   0.0  1   1    8    0   0.000    0.000    0.000  1
 64   1    1  1 0 1    63  16    77  256  256     0.00000   1.37387 1.50467e-004  1088  1891   0.88  -2.16   0.09  -19.06    1.67   26.69  2.000 -1.000 0 2 0 2  0.943  0.943 287.22    0.00     0.00    0.00   2   90.00     0    0    0   100   0.0  1   1    8    0   0.000    0.000    0.000  1
 65   1    1  1 0 1    64  16    77  256  256     0.00000   1.37387 1.50467e-004  1079  1875   0.88  -2.16   0.09  -19.02    1.69   25.69  2.000 -1.000 0 2 0 2  0.943  0.943 287.22    0.00     0.00    0.00   2   90.00     0    0    0   100   0.0  1   1    8    0   0.000    0.000    0.000  1
 66   1    1  1 0 1    65  16    77  256  256     0.00000   1.37387 1.50467e-004  1078  1874   0.88  -2.16   0.09  -18.98    1.70   24.69  2.000 -1.000 0 2 0 2  0.943  0.943 287.22    0.00     0.00    0.00   2   90.00     0    0    0   100   0.0  1   1    8    0   0.000    0.000    0.000  1
 67   1    1  1 0 1    66  16    77  256  256     0.00000   1.37387 1.50467e-004  1097  1907   0.88  -2.16   0.09  -18.95    1.72   23.69  2.000 -1.000 0 2 0 2  0.943  0.943 287.22    0.00     0.00    0.00   2   90.00     0    0    0   100   0.0  1   1    8    0   0.000    0.000    0.000  1
 68   1    1  1 0 1    67  16    77  256  256     0.00000   1.37387 1.50467e-004  1112  1932   0.88  -2.16   0.09  -18.91    1.73   22.69  2.000 -1.000 0 2 0 2  0.943  0.943 287.22    0.00     0.00    0.00   2   90.00     0    0    0   100   0.0  1   1    8    0   0.000    0.000    0.000  1
 69   1    1  1 0 1    68  16    77  256  256     0.00000   1.37387 1.50467e-004  1113  1934   0.88  -2.16   0.09  -18.87    1.75   21.69  2.000 -1.000 0 2 0 2  0.943  0.943 287.22    0.00     0.00    0.00   2   90.00     0    0    0   100   0.0  1   1    8    0   0.000    0.000    0.000  1
 70   1    1  1 0 1    69  16    77  256  256     0.00000   1.37387 1.50467e-004  1131  1966   0.88  -2.16   0.09  -18.83    1.76   20.69  2.000 -1.000 0 2 0 2  0.943  0.943 287.22    0.00     0.00    0.00   2   90.00     0    0    0   100   0.0  1   1    8    0   0.000    0.000    0.000  1
 71   1    1  1 0 1    70  16    77  256  256     0.00000   1.37387 1.50467e-004  1140  1982   0.88  -2.16   0.09  -18.80    1.78   19.69  2.000 -1.000 0 2 0 2  0.943  0.943 287.22    0.00     0.00    0.00   2   90.00     0    0    0   100   0.0  1   1    8    0   0.000    0.000    0.000  1
 72   1    1  1 0 1    71  16    77  256  256     0.00000   1.37387 1.50467e-004  1175  2043   0.88  -2.16   0.09  -18.76    1.79   18.70  2.000 -1.000 0 2 0 2  0.943  0.943 287.22    0.00     0.00    0.00   2   90.00     0    0    0   100   0.0  1   1    8    0   0.000    0.000    0.000  1
 73   1    1  1 0 1    72  16    77  256  256     0.00000   1.37387 1.50467e-004  1201  2088   0.88  -2.16   0.09  -18.72    1.81   17.70  2.000 -1.000 0 2 0 2  0.943  0.943 287.22    0.00     0.00    0.00   2   90.00     0    0    0   100   0.0  1   1    8    0   0.000    0.000    0.000  1
 74   1    1  1 0 1    73  16    77  256  256     0.00000   1.37387 1.50467e-004  1169  2032   0.88  -2.16   0.09  -18.68    1.82   16.70  2.000 -1.000 0 2 0 2  0.943  0.943 287.22    0.00     0.00    0.00   2   90.00     0    0    0   100   0.0  1   1    8    0   0.000    0.000    0.000  1
 75   1    1  1 0 1    74  16    77  256  256     0.00000   1.37387 1.50467e-004  1166  2027   0.88  -2.16   0.09  -18.65    1.84   15.70  2.000 -1.000 0 2 0 2  0.943  0.943 287.22    0.00     0.00    0.00   2   90.00     0    0    0   100   0.0  1   1    8    0   0.000    0.000    0.000  1
 76   1    1  1 0 1    75  16    77  256  256     0.00000   1.37387 1.50467e-004  1172  2036   0.88  -2.16   0.09  -18.61    1.85   14.70  2.000 -1.000 0 2 0 2  0.943  0.943 287.22    0.00     0.00    0.00   2   90.00     0    0    0   100   0.0  1   1    8    0   0.000    0.000    0.000  1
 77   1    1  1 0 1    76  16    77  256  256     0.00000   1.37387 1.50467e-004  1164  2024   0.88  -2.16   0.09  -18.57    1.87   13.70  2.000 -1.000 0 2 0 2  0.943  0.943 287.22    0.00     0.00    0.00   2   90.00     0    0    0   100   0.0  1   1    8    0   0.000    0.000    0.000  1
 78   1    1  1 0 1    77  16    77  256  256     0.00000   1.37387 1.50467e-004  1172  2037   0.88  -2.16   0.09  -18.53    1.89   12.70  2.000 -1.000 0 2 0 2  0.943  0.943 287.22    0.00     0.00    0.00   2   90.00     0    0    0   100   0.0  1   1    8    0   0.000    0.000    0.000  1
 79   1    1  1 0 1    78  16    77  256  256     0.00000   1.37387 1.50467e-004  1173  2040   0.88  -2.16   0.09  -18.50    1.90   11.70  2.000 -1.000 0 2 0 2  0.943  0.943 287.22    0.00     0.00    0.00   2   90.00     0    0    0   100   0.0  1   1    8    0   0.000    0.000    0.000  1
 80   1    1  1 0 1    79  16    77  256  256     0.00000   1.37387 1.50467e-004  1180  2052   0.88  -2.16   0.09  -18.46    1.92   10.70  2.000 -1.000 0 2 0 2  0.943  0.943 287.22    0.00     0.00    0.00   2   90.00     0    0    0   100   0.0  1   1    8    0   0.000    0.000    0.000  1
 81   1    1  1 0 1    80  16    77  256  256     0.00000   1.37387 1.50467e-004  1178  2049   0.88  -2.16   0.09  -18.42    1.93    9.70  2.000 -1.000 0 2 0 2  0.943  0.943 287.22    0.00     0.00    0.00   2   90.00     0    0    0   100   0.0  1   1    8    0   0.000    0.000    0.000  1
 82   1    1  1 0 1    81  16    77  256  256     0.00000   1.37387 1.50467e-004  1220  2121   0.88  -2.16   0.09  -18.38    1.95    8.70  2.000 -1.000 0 2 0 2  0.943  0.943 287.22    0.00     0.00    0.00   2   90.00     0    0    0   100   0.0  1   1    8    0   0.000    0.000    0.000  1
 83   1    1  1 0 1    82  16    77  256  256     0.00000   1.37387 1.50467e-004  1227  2134   0.88  -2.16   0.09  -18.35    1.96    7.70  2.000 -1.000 0 2 0 2  0.943  0.943 287.22    0.00     0.00    0.00   2   90.00     0    0    0   100   0.0  1   1    8    0   0.000    0.000    0.000  1
 84   1    1  1 0 1    83  16    77  256  256     0.00000   1.37387 1.50467e-004  1261  2192   0.88  -2.16   0.09  -18.31    1.98    6.71  2.000 -1.000 0 2 0 2  0.943  0.943 287.22    0.00     0.00    0.00   2   90.00     0    0    0   100   0.0  1   1    8    0   0.000    0.000    0.000  1
