# === DATA DESCRIPTION FILE ======================================================
#
# CAUTION - Investigational device.
# Limited by Federal Law to investigational use.
#
#
# CLINICAL TRYOUT             Research image export tool     V4.2
#
# === GENERAL INFORMATION ========================================================
#
.    Protocol name                      :   WIP 3D FLAIR Sag UMich SENSE
.    Series Type                        :   Image   MRSERIES
.    Acquisition nr                     :   4
.    Reconstruction nr                  :   1
.    Scan Duration [sec]                :   528
.    Max. number of cardiac phases      :   1
.    Max. number of echoes              :   1
.    Max. number of slices/locations    :   327
.    Max. number of dynamics            :   1
.    Max. number of mixes               :   1
.    Patient position                   :   Head First Supine
.    Preparation direction              :   Anterior-Posterior
.    Technique                          :   TIR
.    Scan resolution  (x, y)            :   216  220
.    Scan mode                          :   3D
.    Repetition time [ms]               :   8000.000  
.    FOV (ap,fh,rl) [mm]                :   240.000  200.000  179.850
.    Water Fat shift [pixels]           :   0.849
.    Angulation midslice(ap,fh,rl)[degr]:   -5.862  -4.575  -0.883
.    Off Centre midslice(ap,fh,rl) [mm] :   -11.217  12.297  -0.957
.    Flow compensation <0=no 1=yes> ?   :   1
.    Presaturation     <0=no 1=yes> ?   :   0
.    Phase encoding velocity [cm/sec]   :   0.000000  0.000000  0.000000
.    MTC               <0=no 1=yes> ?   :   0
.    SPIR              <0=no 1=yes> ?   :   1
.    EPI factor        <0,1=no EPI>     :   1
.    Dynamic scan      <0=no 1=yes> ?   :   0
.    Diffusion         <0=no 1=yes> ?   :   0
.    Diffusion echo time [ms]           :   0.0000
.    Max. number of diffusion values    :   1
.    Max. number of gradient orients    :   1
.    Number of label types   <0=no ASL> :   0
#
# === PIXEL VALUES =============================================================
#  PV = pixel value in REC file, FP = floating point value, DV = displayed value on console
#  RS = rescale slope,           RI = rescale intercept,    SS = scale slope
#  DV = PV * RS + RI             FP = DV / (RS * SS)
#
# === IMAGE INFORMATION DEFINITION =============================================
#  The rest of this file contains ONE line per image, this line contains the following information:
#
#  slice number                             (integer)
#  echo number                              (integer)
#  dynamic scan number                      (integer)
#  cardiac phase number                     (integer)
#  image_type_mr                            (integer)
#  scanning sequence                        (integer)
#  index in REC file (in images)            (integer)
#  image pixel size (in bits)               (integer)
#  scan percentage                          (integer)
#  recon resolution (x y)                   (2*integer)
#  rescale intercept                        (float)
#  rescale slope                            (float)
#  scale slope                              (float)
#  window center                            (integer)
#  window width                             (integer)
#  image angulation (ap,fh,rl in degrees )  (3*float)
#  image offcentre (ap,fh,rl in mm )        (3*float)
#  slice thickness (in mm )                 (float)
#  slice gap (in mm )                       (float)
#  image_display_orientation                (integer)
#  slice orientation ( TRA/SAG/COR )        (integer)
#  fmri_status_indication                   (integer)
#  image_type_ed_es  (end diast/end syst)   (integer)
#  pixel spacing (x,y) (in mm)              (2*float)
#  echo_time                                (float)
#  dyn_scan_begin_time                      (float)
#  trigger_time                             (float)
#  diffusion_b_factor                       (float)
#  number of averages                       (integer)
#  image_flip_angle (in degrees)            (float)
#  cardiac frequency   (bpm)                (integer)
#  minimum RR-interval (in ms)              (integer)
#  maximum RR-interval (in ms)              (integer)
#  TURBO factor  <0=no turbo>               (integer)
#  Inversion delay (in ms)                  (float)
#  diffusion b value number    (imagekey!)  (integer)
#  gradient orientation number (imagekey!)  (integer)
#  contrast type                            (string)
#  diffusion anisotropy type                (string)
#  diffusion (ap, fh, rl)                   (3*float)
#  label type (ASL)            (imagekey!)  (integer)
#
# === IMAGE INFORMATION ==========================================================
#  sl ec  dyn ph ty    idx pix scan% rec size                (re)scale              window        angulation              offcentre        thick   gap   info      spacing     echo     dtime   ttime    diff  avg  flip    freq   RR-int  turbo delay b grad cont anis         diffusion       L.ty

  1   1    1  1 0 0     0  16    79  576  576     0.00000   5.91990 1.32413e-003    12    21  -5.86  -4.58  -0.88  -18.23   21.53   87.94  1.100 -0.550 0 2 0 2  0.417  0.417 330.16    0.00     0.00    0.00   1   90.00     0    0    0   110 2400.0  1   1    8    0   0.000    0.000    0.000  1
  2   1    1  1 0 0     1  16    79  576  576     0.00000   5.91990 1.32413e-003    25    43  -5.86  -4.58  -0.88  -18.18   21.48   87.39  1.100 -0.550 0 2 0 2  0.417  0.417 330.16    0.00     0.00    0.00   1   90.00     0    0    0   110 2400.0  1   1    8    0   0.000    0.000    0.000  1
  3   1    1  1 0 0     2  16    79  576  576     0.00000   5.91990 1.32413e-003    24    42  -5.86  -4.58  -0.88  -18.14   21.42   86.85  1.100 -0.550 0 2 0 2  0.417  0.417 330.16    0.00     0.00    0.00   1   90.00     0    0    0   110 2400.0  1   1    8    0   0.000    0.000    0.000  1
  4   1    1  1 0 0     3  16    79  576  576     0.00000   5.91990 1.32413e-003    25    43  -5.86  -4.58  -0.88  -18.10   21.36   86.30  1.100 -0.550 0 2 0 2  0.417  0.417 330.16    0.00     0.00    0.00   1   90.00     0    0    0   110 2400.0  1   1    8    0   0.000    0.000    0.000  1
  5   1    1  1 0 0     4  16    79  576  576     0.00000   5.91990 1.32413e-003    25    43  -5.86  -4.58  -0.88  -18.05   21.31   85.76  1.100 -0.550 0 2 0 2  0.417  0.417 330.16    0.00     0.00    0.00   1   90.00     0    0    0   110 2400.0  1   1    8    0   0.000    0.000    0.000  1
  6   1    1  1 0 0     5  16    79  576  576     0.00000   5.91990 1.32413e-003    23    40  -5.86  -4.58  -0.88  -18.01   21.25   85.21  1.100 -0.550 0 2 0 2  0.417  0.417 330.16    0.00     0.00    0.00   1   90.00     0    0    0   110 2400.0  1   1    8    0   0.000    0.000    0.000  1
  7   1    1  1 0 0     6  16    79  576  576     0.00000   5.91990 1.32413e-003    23    40  -5.86  -4.58  -0.88  -17.97   21.19   84.67  1.100 -0.550 0 2 0 2  0.417  0.417 330.16    0.00     0.00    0.00   1   90.00     0    0    0   110 2400.0  1   1    8    0   0.000    0.000    0.000  1
  8   1    1  1 0 0     7  16    79  576  576     0.00000   5.91990 1.32413e-003    25    43  -5.86  -4.58  -0.88  -17.93   21.14   84.12  1.100 -0.550 0 2 0 2  0.417  0.417 330.16    0.00     0.00    0.00   1   90.00     0    0    0   110 2400.0  1   1    8    0   0.000    0.000    0.000  1
  9   1    1  1 0 0     8  16    79  576  576     0.00000   5.91990 1.32413e-003    22    39  -5.86  -4.58  -0.88  -17.88   21.08   83.58  1.100 -0.550 0 2 0 2  0.417  0.417 330.16    0.00     0.00    0.00   1   90.00     0    0    0   110 2400.0  1   1    8    0   0.000    0.000    0.000  1
 10   1    1  1 0 0     9  16    79  576  576     0.00000   5.91990 1.32413e-003    22    39  -5.86  -4.58  -0.88  -17.84   21.02   83.03  1.100 -0.550 0 2 0 2  0.417  0.417 330.16    0.00     0.00    0.00   1   90.00     0    0    0   110 2400.0  1   1    8    0   0.000    0.000    0.000  1
 11   1    1  1 0 0    10  16    79  576  576     0.00000   5.91990 1.32413e-003    23    40  -5.86  -4.58  -0.88  -17.80   20.97   82.49  1.100 -0.550 0 2 0 2  0.417  0.417 330.16    0.00     0.00    0.00   1   90.00     0    0    0   110 2400.0  1   1    8    0   0.000    0.000    0.000  1
 12   1    1  1 0 0    11  16    79  576  576     0.00000   5.91990 1.32413e-003    19    33  -5.86  -4.58  -0.88  -17.75   20.91   81.94  1.100 -0.550 0 2 0 2  0.417  0.417 330.16    0.00     0.00    0.00   1   90.00     0    0    0   110 2400.0  1   1    8    0   0.000    0.000    0.000  1
 13   1    1  1 0 0    12  16    79  576  576     0.00000   5.91990 1.32413e-003    17    29  -5.86  -4.58  -0.88  -17.71   20.85   81.39  1.100 -0.550 0 2 0 2  0.417  0.417 330.16    0.00     0.00    0.00   1   90.00     0    0    0   110 2400.0  1   1    8    0   0.000    0.000    0.000  1
 14   1    1  1 0 0    13  16    79  576  576     0.00000   5.91990 1.32413e-003    14    24  -5.86  -4.58  -0.88  -17.67   20.80   80.85  1.100 -0.550 0 2 0 2  0.417  0.417 330.16    0.00     0.00    0.00   1   90.00     0    0    0   110 2400.0  1   1    8    0   0.000    0.000    0.000  1
 15   1    1  1 0 0    14  16    79  576  576     0.00000   5.91990 1.32413e-003    12    21  -5.86  -4.58  -0.88  -17.62   20.74   80.30  1.100 -0.550 0 2 0 2  0.417  0.417 330.16    0.00     0.00    0.00   1   90.00     0    0    0   110 2400.0  1   1    8    0   0.000    0.000    0.000  1
 16   1    1  1 0 0    15  16    79  576  576     0.00000   5.91990 1.32413e-003    11    19  -5.86  -4.58  -0.88  -17.58   20.68   79.76  1.100 -0.550 0 2 0 2  0.417  0.417 330.16    0.00     0.00    0.00   1   90.00     0    0    0   110 2400.0  1   1    8    0   0.000    0.000    0.000  1
 17   1    1  1 0 0    16  16    79  576  576     0.00000   5.91990 1.32413e-003    11    19  -5.86  -4.58  -0.88  -17.54   20.63   79.21  1.100 -0.550 0 2 0 2  0.417  0.417 330.16    0.00     0.00    0.00   1   90.00     0    0    0   110 2400.0  1   1    8    0   0.000    0.000    0.000  1
 18   1    1  1 0 0    17  16    79  576  576     0.00000   5.91990 1.32413e-003    11    20  -5.86  -4.58  -0.88  -17.50   20.57   78.67  1.100 -0.550 0 2 0 2  0.417  0.417 330.16    0.00     0.00    0.00   1   90.00     0    0    0   110 2400.0  1   1    8    0   0.000    0.000    0.000  1
 19   1    1  1 0 0    18  16    79  576  576     0.00000   5.91990 1.32413e-003    14    24  -5.86  -4.58  -0.88  -17.45   20.51   78.12  1.100 -0.550 0 2 0 2  0.417  0.417 330.16    0.00     0.00    0.00   1   90.00     0    0    0   110 2400.0  1   1    8    0   0.000    0.000    0.000  1
 20   1    1  1 0 0    19  16    79  576  576     0.00000   5.91990 1.32413e-003    17    29  -5.86  -4.58  -0.88  -17.41   20.46   77.58  1.100 -0.550 0 2 0 2  0.417  0.417 330.16    0.00     0.00    0.00   1   90.00     0    0    0   110 2400.0  1   1    8    0   0.000    0.000    0.000  1
 21   1    1  1 0 0    20  16    79  576  576     0.00000   5.91990 1.32413e-003    19    33  -5.86  -4.58  -0.88  -17.37   20.40   77.03  1.100 -0.550 0 2 0 2  0.417  0.417 330.16    0.00     0.00    0.00   1   90.00     0    0    0   110 2400.0  1   1    8    0   0.000    0.000    0.000  1
 22   1    1  1 0 0    21  16    79  576  576     0.00000   5.91990 1.32413e-003    22    38  -5.86  -4.58  -0.88  -17.32   20.34   76.49  1.100 -0.550 0 2 0 2  0.417  0.417 330.16    0.00     0.00    0.00   1   90.00     0    0    0   110 2400.0  1   1    8    0   0.000    0.000    0.000  1
 23   1    1  1 0 0    22  16    79  576  576     0.00000   5.91990 1.32413e-003    26    45  -5.86  -4.58  -0.88  -17.28   20.29   75.94  1.100 -0.550 0 2 0 2  0.417  0.417 330.16    0.00     0.00    0.00   1   90.00     0    0    0   110 2400.0  1   1    8    0   0.000    0.000    0.000  1
 24   1    1  1 0 0    23  16    79  576  576     0.00000   5.91990 1.32413e-003    27    47  -5.86  -4.58  -0.88  -17.24   20.23   75.40  1.100 -0.550 0 2 0 2  0.417  0.417 330.16    0.00     0.00    0.00   1   90.00     0    0    0   110 2400.0  1   1    8    0   0.000    0.000    0.000  1
 25   1    1  1 0 0    24  16    79  576  576     0.00000   5.91990 1.32413e-003    31    55  -5.86  -4.58  -0.88  -17.19   20.17   74.85  1.100 -0.550 0 2 0 2  0.417  0.417 330.16    0.00     0.00    0.00   1   90.00     0    0    0   110 2400.0  1   1    8    0   0.000    0.000    0.000  1
 26   1    1  1 0 0    25  16    79  576  576     0.00000   5.91990 1.32413e-003    38    66  -5.86  -4.58  -0.88  -17.15   20.12   74.30  1.100 -0.550 0 2 0 2  0.417  0.417 330.16    0.00     0.00    0.00   1   90.00     0    0    0   110 2400.0  1   1    8    0   0.000    0.000    0.000  1
 27   1    1  1 0 0    26  16    79  576  576     0.00000   5.91990 1.32413e-003    49    85  -5.86  -4.58  -0.88  -17.11   20.06   73.76  1.100 -0.550 0 2 0 2  0.417  0.417 330.16    0.00     0.00    0.00   1   90.00     0    0    0   110 2400.0  1   1    8    0   0.000    0.000    0.000  1
 28   1    1  1 0 0    27  16    79  576  576     0.00000   5.91990 1.32413e-003    55    96  -5.86  -4.58  -0.88  -17.07   20.00   73.21  1.100 -0.550 0 2 0 2  0.417  0.417 330.16    0.00     0.00    0.00   1   90.00     0    0    0   110 2400.0  1   1    8    0   0.000    0.000    0.000  1
 29   1    1  1 0 0    28  16    79  576  576     0.00000   5.91990 1.32413e-003   112   195  -5.86  -4.58  -0.88  -17.02   19.95   72.67  1.100 -0.550 0 2 0 2  0.417  0.417 330.16    0.00     0.00    0.00   1   90.00     0    0    0   110 2400.0  1   1    8    0   0.000    0.000    0.000  1
 30   1    1  1 0 0    29  16    79  576  576     0.00000   5.91990 1.32413e-003   233   405  -5.86  -4.58  -0.88  -16.98   19.89   72.12  1.100 -0.550 0 2 0 2  0.417  0.417 330.16    0.00     0.00    0.00   1   90.00     0    0    0   110 2400.0  1   1    8    0   0.000    0.000    0.000  1
 31   1    1  1 0 0    30  16    79  576  576     0.00000   5.91990 1.32413e-003   309   537  -5.86  -4.58  -0.88  -16.94   19.83   71.58  1.100 -0.550 0 2 0 2  0.417  0.417 330.16    0.00     0.00    0.00   1   90.00     0    0    0   110 2400.0  1   1    8    0   0.000    0.000    0.000  1
 32   1    1  1 0 0    31  16    79  576  576     0.00000   5.91990 1.32413e-003   316   550  -5.86  -4.58  -0.88  -16.89   19.78   71.03  1.100 -0.550 0 2 0 2  0.417  0.417 330.16    0.00     0.00    0.00   1   90.00     0    0    0   110 2400.0  1   1    8    0   0.000    0.000    0.000  1
 33   1    1  1 0 0    32  16    79  576  576     0.00000   5.91990 1.32413e-003   279   484  -5.86  -4.58  -0.88  -16.85   19.72   70.49  1.100 -0.550 0 2 0 2  0.417  0.417 330.16    0.00     0.00    0.00   1   90.00     0    0    0   110 2400.0  1   1    8    0   0.000    0.000    0.000  1
 34   1    1  1 0 0    33  16    79  576  576     0.00000   5.91990 1.32413e-003   277   482  -5.86  -4.58  -0.88  -16.81   19.66   69.94  1.100 -0.550 0 2 0 2  0.417  0.417 330.16    0.00     0.00    0.00   1   90.00     0    0    0   110 2400.0  1   1    8    0   0.000    0.000    0.000  1
 35   1    1  1 0 0    34  16    79  576  576     0.00000   5.91990 1.32413e-003   281   488  -5.86  -4.58  -0.88  -16.76   19.61   69.40  1.100 -0.550 0 2 0 2  0.417  0.417 330.16    0.00     0.00    0.00   1   90.00     0    0    0   110 2400.0  1   1    8    0   0.000    0.000    0.000  1
 36   1    1  1 0 0    35  16    79  576  576     0.00000   5.91990 1.32413e-003   273   474  -5.86  -4.58  -0.88  -16.72   19.55   68.85  1.100 -0.550 0 2 0 2  0.417  0.417 330.16    0.00     0.00    0.00   1   90.00     0    0    0   110 2400.0  1   1    8    0   0.000    0.000    0.000  1
 37   1    1  1 0 0    36  16    79  576  576     0.00000   5.91990 1.32413e-003   270   469  -5.86  -4.58  -0.88  -16.68   19.49   68.31  1.100 -0.550 0 2 0 2  0.417  0.417 330.16    0.00     0.00    0.00   1   90.00     0    0    0   110 2400.0  1   1    8    0   0.000    0.000    0.000  1
 38   1    1  1 0 0    37  16    79  576  576     0.00000   5.91990 1.32413e-003   299   520  -5.86  -4.58  -0.88  -16.64   19.44   67.76  1.100 -0.550 0 2 0 2  0.417  0.417 330.16    0.00     0.00    0.00   1   90.00     0    0    0   110 2400.0  1   1    8    0   0.000    0.000    0.000  1
 39   1    1  1 0 0    38  16    79  576  576     0.00000   5.91990 1.32413e-003   331   575  -5.86  -4.58  -0.88  -16.59   19.38   67.21  1.100 -0.550 0 2 0 2  0.417  0.417 330.16    0.00     0.00    0.00   1   90.00     0    0    0   110 2400.0  1   1    8    0   0.000    0.000    0.000  1
 40   1    1  1 0 0    39  16    79  576  576     0.00000   5.91990 1.32413e-003   376   654  -5.86  -4.58  -0.88  -16.55   19.32   66.67  1.100 -0.550 0 2 0 2  0.417  0.417 330.16    0.00     0.00    0.00   1   90.00     0    0    0   110 2400.0  1   1    8    0   0.000    0.000    0.000  1
 41   1    1  1 0 0    40  16    79  576  576     0.00000   5.91990 1.32413e-003   417   726  -5.86  -4.58  -0.88  -16.51   19.27   66.12  1.100 -0.550 0 2 0 2  0.417  0.417 330.16    0.00     0.00    0.00   1   90.00     0    0    0   110 2400.0  1   1    8    0   0.000    0.000    0.000  1
 42   1    1  1 0 0    41  16    79  576  576     0.00000   5.91990 1.32413e-003   432   751  -5.86  -4.58  -0.88  -16.46   19.21   65.58  1.100 -0.550 0 2 0 2  0.417  0.417 330.16    0.00     0.00    0.00   1   90.00     0    0    0   110 2400.0  1   1    8    0   0.000    0.000    0.000  1
 43   1    1  1 0 0    42  16    79  576  576     0.00000   5.91990 1.32413e-003   430   747  -5.86  -4.58  -0.88  -16.42   19.15   65.03  1.100 -0.550 0 2 0 2  0.417  0.417 330.16    0.00     0.00    0.00   1   90.00     0    0    0   110 2400.0  1   1    8    0   0.000    0.000    0.000  1
 44   1    1  1 0 0    43  16    79  576  576     0.00000   5.91990 1.32413e-003   411   715  -5.86  -4.58  -0.88  -16.38   19.10   64.49  1.100 -0.550 0 2 0 2  0.417  0.417 330.16    0.00     0.00    0.00   1   90.00     0    0    0   110 2400.0  1   1    8    0   0.000    0.000    0.000  1
 45   1    1  1 0 0    44  16    79  576  576     0.00000   5.91990 1.32413e-003   397   690  -5.86  -4.58  -0.88  -16.33   19.04   63.94  1.100 -0.550 0 2 0 2  0.417  0.417 330.16    0.00     0.00    0.00   1   90.00     0    0    0   110 2400.0  1   1    8    0   0.000    0.000    0.000  1
 46   1    1  1 0 0    45  16    79  576  576     0.00000   5.91990 1.32413e-003   405   703  -5.86  -4.58  -0.88  -16.29   18.98   63.40  1.100 -0.550 0 2 0 2  0.417  0.417 330.16    0.00     0.00    0.00   1   90.00     0    0    0   110 2400.0  1   1    8    0   0.000    0.000    0.000  1
 47   1    1  1 0 0    46  16    79  576  576     0.00000   5.91990 1.32413e-003   434   755  -5.86  -4.58  -0.88  -16.25   18.93   62.85  1.100 -0.550 0 2 0 2  0.417  0.417 330.16    0.00     0.00    0.00   1   90.00     0    0    0   110 2400.0  1   1    8    0   0.000    0.000    0.000  1
 48   1    1  1 0 0    47  16    79  576  576     0.00000   5.91990 1.32413e-003   492   854  -5.86  -4.58  -0.88  -16.21   18.87   62.31  1.100 -0.550 0 2 0 2  0.417  0.417 330.16    0.00     0.00    0.00   1   90.00     0    0    0   110 2400.0  1   1    8    0   0.000    0.000    0.000  1
 49   1    1  1 0 0    48  16    79  576  576     0.00000   5.91990 1.32413e-003   546   949  -5.86  -4.58  -0.88  -16.16   18.81   61.76  1.100 -0.550 0 2 0 2  0.417  0.417 330.16    0.00     0.00    0.00   1   90.00     0    0    0   110 2400.0  1   1    8    0   0.000    0.000    0.000  1
 50   1    1  1 0 0    49  16    79  576  576     0.00000   5.91990 1.32413e-003   582  1011  -5.86  -4.58  -0.88  -16.12   18.76   61.22  1.100 -0.550 0 2 0 2  0.417  0.417 330.16    0.00     0.00    0.00   1   90.00     0    0    0   110 2400.0  1   1    8    0   0.000    0.000    0.000  1
 51   1    1  1 0 0    50  16    79  576  576     0.00000   5.91990 1.32413e-003   571   992  -5.86  -4.58  -0.88  -16.08   18.70   60.67  1.100 -0.550 0 2 0 2  0.417  0.417 330.16    0.00     0.00    0.00   1   90.00     0    0    0   110 2400.0  1   1    8    0   0.000    0.000    0.000  1
 52   1    1  1 0 0    51  16    79  576  576     0.00000   5.91990 1.32413e-003   574   998  -5.86  -4.58  -0.88  -16.03   18.64   60.13  1.100 -0.550 0 2 0 2  0.417  0.417 330.16    0.00     0.00    0.00   1   90.00     0    0    0   110 2400.0  1   1    8    0   0.000    0.000    0.000  1
 53   1    1  1 0 0    52  16    79  576  576     0.00000   5.91990 1.32413e-003   611  1062  -5.86  -4.58  -0.88  -15.99   18.59   59.58  1.100 -0.550 0 2 0 2  0.417  0.417 330.16    0.00     0.00    0.00   1   90.00     0    0    0   110 2400.0  1   1    8    0   0.000    0.000    0.000  1
 54   1    1  1 0 0    53  16    79  576  576     0.00000   5.91990 1.32413e-003   608  1058  -5.86  -4.58  -0.88  -15.95   18.53   59.03  1.100 -0.550 0 2 0 2  0.417  0.417 330.16    0.00     0.00    0.00   1   90.00     0    0    0   110 2400.0  1   1    8    0   0.000    0.000    0.000  1
 55   1    1  1 0 0    54  16    79  576  576     0.00000   5.91990 1.32413e-003   625  1087  -5.86  -4.58  -0.88  -15.90   18.47   58.49  1.100 -0.550 0 2 0 2  0.417  0.417 330.16    0.00     0.00    0.00   1   90.00     0    0    0   110 2400.0  1   1    8    0   0.000    0.000    0.000  1
 56   1    1  1 0 0    55  16    79  576  576     0.00000   5.91990 1.32413e-003   645  1122  -5.86  -4.58  -0.88  -15.86   18.42   57.94  1.100 -0.550 0 2 0 2  0.417  0.417 330.16    0.00     0.00    0.00   1   90.00     0    0    0   110 2400.0  1   1    8    0   0.000    0.000    0.000  1
 57   1    1  1 0 0    56  16    79  576  576     0.00000   5.91990 1.32413e-003   688  1195  -5.86  -4.58  -0.88  -15.82   18.36   57.40  1.100 -0.550 0 2 0 2  0.417  0.417 330.16    0.00     0.00    0.00   1   90.00     0    0    0   110 2400.0  1   1    8    0   0.000    0.000    0.000  1
 58   1    1  1 0 0    57  16    79  576  576     0.00000   5.91990 1.32413e-003   732  1272  -5.86  -4.58  -0.88  -15.78   18.30   56.85  1.100 -0.550 0 2 0 2  0.417  0.417 330.16    0.00     0.00    0.00   1   90.00     0    0    0   110 2400.0  1   1    8    0   0.000    0.000    0.000  1
 59   1    1  1 0 0    58  16    79  576  576     0.00000   5.91990 1.32413e-003   784  1363  -5.86  -4.58  -0.88  -15.73   18.25   56.31  1.100 -0.550 0 2 0 2  0.417  0.417 330.16    0.00     0.00    0.00   1   90.00     0    0    0   110 2400.0  1   1    8    0   0.000    0.000    0.000  1
 60   1    1  1 0 0    59  16    79  576  576     0.00000   5.91990 1.32413e-003   830  1442  -5.86  -4.58  -0.88  -15.69   18.19   55.76  1.100 -0.550 0 2 0 2  0.417  0.417 330.16    0.00     0.00    0.00   1   90.00     0    0    0   110 2400.0  1   1    8    0   0.000    0.000    0.000  1
 61   1    1  1 0 0    60  16    79  576  576     0.00000   5.91990 1.32413e-003   862  1498  -5.86  -4.58  -0.88  -15.65   18.13   55.22  1.100 -0.550 0 2 0 2  0.417  0.417 330.16    0.00     0.00    0.00   1   90.00     0    0    0   110 2400.0  1   1    8    0   0.000    0.000    0.000  1
 62   1    1  1 0 0    61  16    79  576  576     0.00000   5.91990 1.32413e-003   900  1565  -5.86  -4.58  -0.88  -15.60   18.08   54.67  1.100 -0.550 0 2 0 2  0.417  0.417 330.16    0.00     0.00    0.00   1   90.00     0    0    0   110 2400.0  1   1    8    0   0.000    0.000    0.000  1
 63   1    1  1 0 0    62  16    79  576  576     0.00000   5.91990 1.32413e-003   934  1624  -5.86  -4.58  -0.88  -15.56   18.02   54.13  1.100 -0.550 0 2 0 2  0.417  0.417 330.16    0.00     0.00    0.00   1   90.00     0    0    0   110 2400.0  1   1    8    0   0.000    0.000    0.000  1
 64   1    1  1 0 0    63  16    79  576  576     0.00000   5.91990 1.32413e-003   960  1668  -5.86  -4.58  -0.88  -15.52   17.96   53.58  1.100 -0.550 0 2 0 2  0.417  0.417 330.16    0.00     0.00    0.00   1   90.00     0    0    0   110 2400.0  1   1    8    0   0.000    0.000    0.000  1
 65   1    1  1 0 0    64  16    79  576  576     0.00000   5.91990 1.32413e-003   976  1697  -5.86  -4.58  -0.88  -15.47   17.91   53.04  1.100 -0.550 0 2 0 2  0.417  0.417 330.16    0.00     0.00    0.00   1   90.00     0    0    0   110 2400.0  1   1    8    0   0.000    0.000    0.000  1
 66   1    1  1 0 0    65  16    79  576  576     0.00000   5.91990 1.32413e-003   983  1708  -5.86  -4.58  -0.88  -15.43   17.85   52.49  1.100 -0.550 0 2 0 2  0.417  0.417 330.16    0.00     0.00    0.00   1   90.00     0    0    0   110 2400.0  1   1    8    0   0.000    0.000    0.000  1
 67   1    1  1 0 0    66  16    79  576  576     0.00000   5.91990 1.32413e-003  1003  1744  -5.86  -4.58  -0.88  -15.39   17.79   51.94  1.100 -0.550 0 2 0 2  0.417  0.417 330.16    0.00     0.00    0.00   1   90.00     0    0    0   110 2400.0  1   1    8    0   0.000    0.000    0.000  1
 68   1    1  1 0 0    67  16    79  576  576     0.00000   5.91990 1.32413e-003  1028  1786  -5.86  -4.58  -0.88  -15.35   17.74   51.40  1.100 -0.550 0 2 0 2  0.417  0.417 330.16    0.00     0.00    0.00   1   90.00     0    0    0   110 2400.0  1   1    8    0   0.000    0.000    0.000  1
 69   1    1  1 0 0    68  16    79  576  576     0.00000   5.91990 1.32413e-003  1032  1794  -5.86  -4.58  -0.88  -15.30   17.68   50.85  1.100 -0.550 0 2 0 2  0.417  0.417 330.16    0.00     0.00    0.00   1   90.00     0    0    0   110 2400.0  1   1    8    0   0.000    0.000    0.000  1
 70   1    1  1 0 0    69  16    79  576  576     0.00000   5.91990 1.32413e-003  1044  1816  -5.86  -4.58  -0.88  -15.26   17.62   50.31  1.100 -0.550 0 2 0 2  0.417  0.417 330.16    0.00     0.00    0.00   1   90.00     0    0    0   110 2400.0  1   1    8    0   0.000    0.000    0.000  1
 71   1    1  1 0 0    70  16    79  576  576     0.00000   5.91990 1.32413e-003  1047  1819  -5.86  -4.58  -0.88  -15.22   17.57   49.76  1.100 -0.550 0 2 0 2  0.417  0.417 330.16    0.00     0.00    0.00   1   90.00     0    0    0   110 2400.0  1   1    8    0   0.000    0.000    0.000  1
 72   1    1  1 0 0    71  16    79  576  576     0.00000   5.91990 1.32413e-003  1049  1823  -5.86  -4.58  -0.88  -15.17   17.51   49.22  1.100 -0.550 0 2 0 2  0.417  0.417 330.16    0.00     0.00    0.00   1   90.00     0    0    0   110 2400.0  1   1    8    0   0.000    0.000    0.000  1
 73   1    1  1 0 0    72  16    79  576  576     0.00000   5.91990 1.32413e-003  1054  1833  -5.86  -4.58  -0.88  -15.13   17.45   48.67  1.100 -0.550 0 2 0 2  0.417  0.417 330.16    0.00     0.00    0.00   1   90.00     0    0    0   110 2400.0  1   1    8    0   0.000    0.000    0.000  1
 74   1    1  1 0 0    73  16    79  576  576     0.00000   5.91990 1.32413e-003  1049  1824  -5.86  -4.58  -0.88  -15.09   17.40   48.13  1.100 -0.550 0 2 0 2  0.417  0.417 330.16    0.00     0.00    0.00   1   90.00     0    0    0   110 2400.0  1   1    8    0   0.000    0.000    0.000  1
 75   1    1  1 0 0    74  16    79  576  576     0.00000   5.91990 1.32413e-003  1062  1846  -5.86  -4.58  -0.88  -15.04   17.34   47.58  1.100 -0.550 0 2 0 2  0.417  0.417 330.16    0.00     0.00    0.00   1   90.00     0    0    0   110 2400.0  1   1    8    0   0.000    0.000    0.000  1
 76   1    1  1 0 0    75  16    79  576  576     0.00000   5.91990 1.32413e-003  1070  1860  -5.86  -4.58  -0.88  -15.00   17.28   47.04  1.100 -0.550 0 2 0 2  0.417  0.417 330.16    0.00     0.00    0.00   1   90.00     0    0    0   110 2400.0  1   1    8    0   0.000    0.000    0.000  1
 77   1    1  1 0 0    76  16    79  576  576     0.00000   5.91990 1.32413e-003  1086  1887  -5.86  -4.58  -0.88  -14.96   17.23   46.49  1.100 -0.550 0 2 0 2  0.417  0.417 330.16    0.00     0.00    0.00   1   90.00     0    0    0   110 2400.0  1   1    8    0   0.000    0.000    0.000  1
 78   1    1  1 0 0    77  16    79  576  576     0.00000   5.91990 1.32413e-003  1098  1909  -5.86  -4.58  -0.88  -14.92   17.17   45.95  1.100 -0.550 0 2 0 2  0.417  0.417 330.16    0.00     0.00    0.00   1   90.00     0    0    0   110 2400.0  1   1    8    0   0.000    0.000    0.000  1
 79   1    1  1 0 0    78  16    79  576  576     0.00000   5.91990 1.32413e-003  1101  1914  -5.86  -4.58  -0.88  -14.87   17.11   45.40  1.100 -0.550 0 2 0 2  0.417  0.417 330.16    0.00     0.00    0.00   1   90.00     0    0    0   110 2400.0  1   1    8    0   0.000    0.000    0.000  1
 80   1    1  1 0 0    79  16    79  576  576     0.00000   5.91990 1.32413e-003  1100  1913  -5.86  -4.58  -0.88  -14.83   17.06   44.85  1.100 -0.550 0 2 0 2  0.417  0.417 330.16    0.00     0.00    0.00   1   90.00     0    0    0   110 2400.0  1   1    8    0   0.000    0.000    0.000  1
 81   1    1  1 0 0    80  16    79  576  576     0.00000   5.91990 1.32413e-003  1099  1910  -5.86  -4.58  -0.88  -14.79   17.00   44.31  1.100 -0.550 0 2 0 2  0.417  0.417 330.16    0.00     0.00    0.00   1   90.00     0    0    0   110 2400.0  1   1    8    0   0.000    0.000    0.000  1
 82   1    1  1 0 0    81  16    79  576  576     0.00000   5.91990 1.32413e-003  1103  1918  -5.86  -4.58  -0.88  -14.74   16.94   43.76  1.100 -0.550 0 2 0 2  0.417  0.417 330.16    0.00     0.00    0.00   1   90.00     0    0    0   110 2400.0  1   1    8    0   0.000    0.000    0.000  1
 83   1    1  1 0 0    82  16    79  576  576     0.00000   5.91990 1.32413e-003  1107  1924  -5.86  -4.58  -0.88  -14.70   16.89   43.22  1.100 -0.550 0 2 0 2  0.417  0.417 330.16    0.00     0.00    0.00   1   90.00     0    0    0   110 2400.0  1   1    8    0   0.000    0.000    0.000  1
 84   1    1  1 0 0    83  16    79  576  576     0.00000   5.91990 1.32413e-003  1111  1932  -5.86  -4.58  -0.88  -14.66   16.83   42.67  1.100 -0.550 0 2 0 2  0.417  0.417 330.16    0.00     0.00    0.00   1   90.00     0    0    0   110 2400.0  1   1    8    0   0.000    0.000    0.000  1
