# === DATA DESCRIPTION FILE ======================================================
#
# CAUTION - Investigational device.
# Limited by Federal Law to investigational use.
#
#
# CLINICAL TRYOUT             Research image export tool     V4.2
#
# === GENERAL INFORMATION ========================================================
#
.    Protocol name                      :   WIP MPrageADNIsag SENSE
.    Series Type                        :   Image   MRSERIES
.    Acquisition nr                     :   3
.    Reconstruction nr                  :   1
.    Scan Duration [sec]                :   356
.    Max. number of cardiac phases      :   1
.    Max. number of echoes              :   1
.    Max. number of slices/locations    :   170
.    Max. number of dynamics            :   1
.    Max. number of mixes               :   1
.    Patient position                   :   Head First Supine
.    Preparation direction              :   Anterior-Posterior
.    Technique                          :   T1TFE
.    Scan resolution  (x, y)            :   256  256
.    Scan mode                          :   3D
.    Repetition time [ms]               :   6.767  
.    FOV (ap,fh,rl) [mm]                :   240.000  256.000  204.000
.    Water Fat shift [pixels]           :   1.802
.    Angulation midslice(ap,fh,rl)[degr]:   -1.386  0.565  -0.102
.    Off Centre midslice(ap,fh,rl) [mm] :   -15.974  -38.716  -4.240
.    Flow compensation <0=no 1=yes> ?   :   0
.    Presaturation     <0=no 1=yes> ?   :   0
.    Phase encoding velocity [cm/sec]   :   0.000000  0.000000  0.000000
.    MTC               <0=no 1=yes> ?   :   0
.    SPIR              <0=no 1=yes> ?   :   0
.    EPI factor        <0,1=no EPI>     :   1
.    Dynamic scan      <0=no 1=yes> ?   :   0
.    Diffusion         <0=no 1=yes> ?   :   0
.    Diffusion echo time [ms]           :   0.0000
.    Max. number of diffusion values    :   1
.    Max. number of gradient orients    :   1
.    Number of label types   <0=no ASL> :   0
#
# === PIXEL VALUES =============================================================
#  PV = pixel value in REC file, FP = floating point value, DV = displayed value on console
#  RS = rescale slope,           RI = rescale intercept,    SS = scale slope
#  DV = PV * RS + RI             FP = DV / (RS * SS)
#
# === IMAGE INFORMATION DEFINITION =============================================
#  The rest of this file contains ONE line per image, this line contains the following information:
#
#  slice number                             (integer)
#  echo number                              (integer)
#  dynamic scan number                      (integer)
#  cardiac phase number                     (integer)
#  image_type_mr                            (integer)
#  scanning sequence                        (integer)
#  index in REC file (in images)            (integer)
#  image pixel size (in bits)               (integer)
#  scan percentage                          (integer)
#  recon resolution (x y)                   (2*integer)
#  rescale intercept                        (float)
#  rescale slope                            (float)
#  scale slope                              (float)
#  window center                            (integer)
#  window width                             (integer)
#  image angulation (ap,fh,rl in degrees )  (3*float)
#  image offcentre (ap,fh,rl in mm )        (3*float)
#  slice thickness (in mm )                 (float)
#  slice gap (in mm )                       (float)
#  image_display_orientation                (integer)
#  slice orientation ( TRA/SAG/COR )        (integer)
#  fmri_status_indication                   (integer)
#  image_type_ed_es  (end diast/end syst)   (integer)
#  pixel spacing (x,y) (in mm)              (2*float)
#  echo_time                                (float)
#  dyn_scan_begin_time                      (float)
#  trigger_time                             (float)
#  diffusion_b_factor                       (float)
#  number of averages                       (integer)
#  image_flip_angle (in degrees)            (float)
#  cardiac frequency   (bpm)                (integer)
#  minimum RR-interval (in ms)              (integer)
#  maximum RR-interval (in ms)              (integer)
#  TURBO factor  <0=no turbo>               (integer)
#  Inversion delay (in ms)                  (float)
#  diffusion b value number    (imagekey!)  (integer)
#  gradient orientation number (imagekey!)  (integer)
#  contrast type                            (string)
#  diffusion anisotropy type                (string)
#  diffusion (ap, fh, rl)                   (3*float)
#  label type (ASL)            (imagekey!)  (integer)
#
# === IMAGE INFORMATION ==========================================================
#  sl ec  dyn ph ty    idx pix scan% rec size                (re)scale              window        angulation              offcentre        thick   gap   info      spacing     echo     dtime   ttime    diff  avg  flip    freq   RR-int  turbo delay b grad cont anis         diffusion       L.ty

  1   1    1  1 0 2     0  16   100  256  256     0.00000   6.82002 2.51255e-004    19    33  -1.39   0.56  -0.10  -14.97  -36.26   97.12  1.200  0.000 0 2 0 2  1.000  1.000   3.13    0.00     0.00    0.00   1    8.00     0    0    0   240   0.0  1   1    7    0   0.000    0.000    0.000  1
  2   1    1  1 0 2     1  16   100  256  256     0.00000   6.82002 2.51255e-004    19    33  -1.39   0.56  -0.10  -14.98  -36.29   95.93  1.200  0.000 0 2 0 2  1.000  1.000   3.13    0.00     0.00    0.00   1    8.00     0    0    0   240   0.0  1   1    7    0   0.000    0.000    0.000  1
  3   1    1  1 0 2     2  16   100  256  256     0.00000   6.82002 2.51255e-004    20    34  -1.39   0.56  -0.10  -14.99  -36.32   94.73  1.200  0.000 0 2 0 2  1.000  1.000   3.13    0.00     0.00    0.00   1    8.00     0    0    0   240   0.0  1   1    7    0   0.000    0.000    0.000  1
  4   1    1  1 0 2     3  16   100  256  256     0.00000   6.82002 2.51255e-004    22    37  -1.39   0.56  -0.10  -15.01  -36.35   93.53  1.200  0.000 0 2 0 2  1.000  1.000   3.13    0.00     0.00    0.00   1    8.00     0    0    0   240   0.0  1   1    7    0   0.000    0.000    0.000  1
  5   1    1  1 0 2     4  16   100  256  256     0.00000   6.82002 2.51255e-004    23    39  -1.39   0.56  -0.10  -15.02  -36.38   92.33  1.200  0.000 0 2 0 2  1.000  1.000   3.13    0.00     0.00    0.00   1    8.00     0    0    0   240   0.0  1   1    7    0   0.000    0.000    0.000  1
  6   1    1  1 0 2     5  16   100  256  256     0.00000   6.82002 2.51255e-004    24    42  -1.39   0.56  -0.10  -15.03  -36.41   91.13  1.200  0.000 0 2 0 2  1.000  1.000   3.13    0.00     0.00    0.00   1    8.00     0    0    0   240   0.0  1   1    7    0   0.000    0.000    0.000  1
  7   1    1  1 0 2     6  16   100  256  256     0.00000   6.82002 2.51255e-004    28    49  -1.39   0.56  -0.10  -15.04  -36.44   89.93  1.200  0.000 0 2 0 2  1.000  1.000   3.13    0.00     0.00    0.00   1    8.00     0    0    0   240   0.0  1   1    7    0   0.000    0.000    0.000  1
  8   1    1  1 0 2     7  16   100  256  256     0.00000   6.82002 2.51255e-004    32    56  -1.39   0.56  -0.10  -15.05  -36.47   88.73  1.200  0.000 0 2 0 2  1.000  1.000   3.13    0.00     0.00    0.00   1    8.00     0    0    0   240   0.0  1   1    7    0   0.000    0.000    0.000  1
  9   1    1  1 0 2     8  16   100  256  256     0.00000   6.82002 2.51255e-004    34    58  -1.39   0.56  -0.10  -15.07  -36.50   87.53  1.200  0.000 0 2 0 2  1.000  1.000   3.13    0.00     0.00    0.00   1    8.00     0    0    0   240   0.0  1   1    7    0   0.000    0.000    0.000  1
 10   1    1  1 0 2     9  16   100  256  256     0.00000   6.82002 2.51255e-004    30    53  -1.39   0.56  -0.10  -15.08  -36.53   86.33  1.200  0.000 0 2 0 2  1.000  1.000   3.13    0.00     0.00    0.00   1    8.00     0    0    0   240   0.0  1   1    7    0   0.000    0.000    0.000  1
 11   1    1  1 0 2    10  16   100  256  256     0.00000   6.82002 2.51255e-004    32    56  -1.39   0.56  -0.10  -15.09  -36.55   85.13  1.200  0.000 0 2 0 2  1.000  1.000   3.13    0.00     0.00    0.00   1    8.00     0    0    0   240   0.0  1   1    7    0   0.000    0.000    0.000  1
 12   1    1  1 0 2    11  16   100  256  256     0.00000   6.82002 2.51255e-004    31    54  -1.39   0.56  -0.10  -15.10  -36.58   83.93  1.200  0.000 0 2 0 2  1.000  1.000   3.13    0.00     0.00    0.00   1    8.00     0    0    0   240   0.0  1   1    7    0   0.000    0.000    0.000  1
 13   1    1  1 0 2    12  16   100  256  256     0.00000   6.82002 2.51255e-004   106   185  -1.39   0.56  -0.10  -15.11  -36.61   82.73  1.200  0.000 0 2 0 2  1.000  1.000   3.13    0.00     0.00    0.00   1    8.00     0    0    0   240   0.0  1   1    7    0   0.000    0.000    0.000  1
 14   1    1  1 0 2    13  16   100  256  256     0.00000   6.82002 2.51255e-004   347   603  -1.39   0.56  -0.10  -15.12  -36.64   81.53  1.200  0.000 0 2 0 2  1.000  1.000   3.13    0.00     0.00    0.00   1    8.00     0    0    0   240   0.0  1   1    7    0   0.000    0.000    0.000  1
 15   1    1  1 0 2    14  16   100  256  256     0.00000   6.82002 2.51255e-004   453   788  -1.39   0.56  -0.10  -15.14  -36.67   80.33  1.200  0.000 0 2 0 2  1.000  1.000   3.13    0.00     0.00    0.00   1    8.00     0    0    0   240   0.0  1   1    7    0   0.000    0.000    0.000  1
 16   1    1  1 0 2    15  16   100  256  256     0.00000   6.82002 2.51255e-004   495   861  -1.39   0.56  -0.10  -15.15  -36.70   79.13  1.200  0.000 0 2 0 2  1.000  1.000   3.13    0.00     0.00    0.00   1    8.00     0    0    0   240   0.0  1   1    7    0   0.000    0.000    0.000  1
 17   1    1  1 0 2    16  16   100  256  256     0.00000   6.82002 2.51255e-004   660  1148  -1.39   0.56  -0.10  -15.16  -36.73   77.93  1.200  0.000 0 2 0 2  1.000  1.000   3.13    0.00     0.00    0.00   1    8.00     0    0    0   240   0.0  1   1    7    0   0.000    0.000    0.000  1
 18   1    1  1 0 2    17  16   100  256  256     0.00000   6.82002 2.51255e-004   775  1348  -1.39   0.56  -0.10  -15.17  -36.76   76.73  1.200  0.000 0 2 0 2  1.000  1.000   3.13    0.00     0.00    0.00   1    8.00     0    0    0   240   0.0  1   1    7    0   0.000    0.000    0.000  1
 19   1    1  1 0 2    18  16   100  256  256     0.00000   6.82002 2.51255e-004   737  1282  -1.39   0.56  -0.10  -15.18  -36.79   75.53  1.200  0.000 0 2 0 2  1.000  1.000   3.13    0.00     0.00    0.00   1    8.00     0    0    0   240   0.0  1   1    7    0   0.000    0.000    0.000  1
 20   1    1  1 0 2    19  16   100  256  256     0.00000   6.82002 2.51255e-004   758  1318  -1.39   0.56  -0.10  -15.20  -36.82   74.33  1.200  0.000 0 2 0 2  1.000  1.000   3.13    0.00     0.00    0.00   1    8.00     0    0    0   240   0.0  1   1    7    0   0.000    0.000    0.000  1
 21   1    1  1 0 2    20  16   100  256  256     0.00000   6.82002 2.51255e-004   775  1347  -1.39   0.56  -0.10  -15.21  -36.84   73.13  1.200  0.000 0 2 0 2  1.000  1.000   3.13    0.00     0.00    0.00   1    8.00     0    0    0   240   0.0  1   1    7    0   0.000    0.000    0.000  1
 22   1    1  1 0 2    21  16   100  256  256     0.00000   6.82002 2.51255e-004   827  1437  -1.39   0.56  -0.10  -15.22  -36.87   71.93  1.200  0.000 0 2 0 2  1.000  1.000   3.13    0.00     0.00    0.00   1    8.00     0    0    0   240   0.0  1   1    7    0   0.000    0.000    0.000  1
 23   1    1  1 0 2    22  16   100  256  256     0.00000   6.82002 2.51255e-004   852  1481  -1.39   0.56  -0.10  -15.23  -36.90   70.73  1.200  0.000 0 2 0 2  1.000  1.000   3.13    0.00     0.00    0.00   1    8.00     0    0    0   240   0.0  1   1    7    0   0.000    0.000    0.000  1
 24   1    1  1 0 2    23  16   100  256  256     0.00000   6.82002 2.51255e-004   899  1563  -1.39   0.56  -0.10  -15.24  -36.93   69.53  1.200  0.000 0 2 0 2  1.000  1.000   3.13    0.00     0.00    0.00   1    8.00     0    0    0   240   0.0  1   1    7    0   0.000    0.000    0.000  1
 25   1    1  1 0 2    24  16   100  256  256     0.00000   6.82002 2.51255e-004   982  1707  -1.39   0.56  -0.10  -15.26  -36.96   68.33  1.200  0.000 0 2 0 2  1.000  1.000   3.13    0.00     0.00    0.00   1    8.00     0    0    0   240   0.0  1   1    7    0   0.000    0.000    0.000  1
 26   1    1  1 0 2    25  16   100  256  256     0.00000   6.82002 2.51255e-004  1058  1839  -1.39   0.56  -0.10  -15.27  -36.99   67.14  1.200  0.000 0 2 0 2  1.000  1.000   3.13    0.00     0.00    0.00   1    8.00     0    0    0   240   0.0  1   1    7    0   0.000    0.000    0.000  1
 27   1    1  1 0 2    26  16   100  256  256     0.00000   6.82002 2.51255e-004  1114  1937  -1.39   0.56  -0.10  -15.28  -37.02   65.94  1.200  0.000 0 2 0 2  1.000  1.000   3.13    0.00     0.00    0.00   1    8.00     0    0    0   240   0.0  1   1    7    0   0.000    0.000    0.000  1
 28   1    1  1 0 2    27  16   100  256  256     0.00000   6.82002 2.51255e-004  1145  1990  -1.39   0.56  -0.10  -15.29  -37.05   64.74  1.200  0.000 0 2 0 2  1.000  1.000   3.13    0.00     0.00    0.00   1    8.00     0    0    0   240   0.0  1   1    7    0   0.000    0.000    0.000  1
 29   1    1  1 0 2    28  16   100  256  256     0.00000   6.82002 2.51255e-004  1170  2034  -1.39   0.56  -0.10  -15.30  -37.08   63.54  1.200  0.000 0 2 0 2  1.000  1.000   3.13    0.00     0.00    0.00   1    8.00     0    0    0   240   0.0  1   1    7    0   0.000    0.000    0.000  1
 30   1    1  1 0 2    29  16   100  256  256     0.00000   6.82002 2.51255e-004  1180  2051  -1.39   0.56  -0.10  -15.31  -37.11   62.34  1.200  0.000 0 2 0 2  1.000  1.000   3.13    0.00     0.00    0.00   1    8.00     0    0    0   240   0.0  1   1    7    0   0.000    0.000    0.000  1
 31   1    1  1 0 2    30  16   100  256  256     0.00000   6.82002 2.51255e-004  1188  2066  -1.39   0.56  -0.10  -15.33  -37.13   61.14  1.200  0.000 0 2 0 2  1.000  1.000   3.13    0.00     0.00    0.00   1    8.00     0    0    0   240   0.0  1   1    7    0   0.000    0.000    0.000  1
 32   1    1  1 0 2    31  16   100  256  256     0.00000   6.82002 2.51255e-004  1195  2077  -1.39   0.56  -0.10  -15.34  -37.16   59.94  1.200  0.000 0 2 0 2  1.000  1.000   3.13    0.00     0.00    0.00   1    8.00     0    0    0   240   0.0  1   1    7    0   0.000    0.000    0.000  1
 33   1    1  1 0 2    32  16   100  256  256     0.00000   6.82002 2.51255e-004  1203  2091  -1.39   0.56  -0.10  -15.35  -37.19   58.74  1.200  0.000 0 2 0 2  1.000  1.000   3.13    0.00     0.00    0.00   1    8.00     0    0    0   240   0.0  1   1    7    0   0.000    0.000    0.000  1
 34   1    1  1 0 2    33  16   100  256  256     0.00000   6.82002 2.51255e-004  1212  2107  -1.39   0.56  -0.10  -15.36  -37.22   57.54  1.200  0.000 0 2 0 2  1.000  1.000   3.13    0.00     0.00    0.00   1    8.00     0    0    0   240   0.0  1   1    7    0   0.000    0.000    0.000  1
 35   1    1  1 0 2    34  16   100  256  256     0.00000   6.82002 2.51255e-004  1230  2137  -1.39   0.56  -0.10  -15.37  -37.25   56.34  1.200  0.000 0 2 0 2  1.000  1.000   3.13    0.00     0.00    0.00   1    8.00     0    0    0   240   0.0  1   1    7    0   0.000    0.000    0.000  1
 36   1    1  1 0 2    35  16   100  256  256     0.00000   6.82002 2.51255e-004  1248  2169  -1.39   0.56  -0.10  -15.39  -37.28   55.14  1.200  0.000 0 2 0 2  1.000  1.000   3.13    0.00     0.00    0.00   1    8.00     0    0    0   240   0.0  1   1    7    0   0.000    0.000    0.000  1
 37   1    1  1 0 2    36  16   100  256  256     0.00000   6.82002 2.51255e-004  1232  2142  -1.39   0.56  -0.10  -15.40  -37.31   53.94  1.200  0.000 0 2 0 2  1.000  1.000   3.13    0.00     0.00    0.00   1    8.00     0    0    0   240   0.0  1   1    7    0   0.000    0.000    0.000  1
 38   1    1  1 0 2    37  16   100  256  256     0.00000   6.82002 2.51255e-004  1228  2135  -1.39   0.56  -0.10  -15.41  -37.34   52.74  1.200  0.000 0 2 0 2  1.000  1.000   3.13    0.00     0.00    0.00   1    8.00     0    0    0   240   0.0  1   1    7    0   0.000    0.000    0.000  1
 39   1    1  1 0 2    38  16   100  256  256     0.00000   6.82002 2.51255e-004  1239  2153  -1.39   0.56  -0.10  -15.42  -37.37   51.54  1.200  0.000 0 2 0 2  1.000  1.000   3.13    0.00     0.00    0.00   1    8.00     0    0    0   240   0.0  1   1    7    0   0.000    0.000    0.000  1
 40   1    1  1 0 2    39  16   100  256  256     0.00000   6.82002 2.51255e-004  1228  2136  -1.39   0.56  -0.10  -15.43  -37.40   50.34  1.200  0.000 0 2 0 2  1.000  1.000   3.13    0.00     0.00    0.00   1    8.00     0    0    0   240   0.0  1   1    7    0   0.000    0.000    0.000  1
 41   1    1  1 0 2    40  16   100  256  256     0.00000   6.82002 2.51255e-004  1210  2103  -1.39   0.56  -0.10  -15.45  -37.42   49.14  1.200  0.000 0 2 0 2  1.000  1.000   3.13    0.00     0.00    0.00   1    8.00     0    0    0   240   0.0  1   1    7    0   0.000    0.000    0.000  1
 42   1    1  1 0 2    41  16   100  256  256     0.00000   6.82002 2.51255e-004  1211  2104  -1.39   0.56  -0.10  -15.46  -37.45   47.94  1.200  0.000 0 2 0 2  1.000  1.000   3.13    0.00     0.00    0.00   1    8.00     0    0    0   240   0.0  1   1    7    0   0.000    0.000    0.000  1
 43   1    1  1 0 2    42  16   100  256  256     0.00000   6.82002 2.51255e-004  1158  2013  -1.39   0.56  -0.10  -15.47  -37.48   46.74  1.200  0.000 0 2 0 2  1.000  1.000   3.13    0.00     0.00    0.00   1    8.00     0    0    0   240   0.0  1   1    7    0   0.000    0.000    0.000  1
 44   1    1  1 0 2    43  16   100  256  256     0.00000   6.82002 2.51255e-004  1111  1932  -1.39   0.56  -0.10  -15.48  -37.51   45.54  1.200  0.000 0 2 0 2  1.000  1.000   3.13    0.00     0.00    0.00   1    8.00     0    0    0   240   0.0  1   1    7    0   0.000    0.000    0.000  1
 45   1    1  1 0 2    44  16   100  256  256     0.00000   6.82002 2.51255e-004  1070  1859  -1.39   0.56  -0.10  -15.49  -37.54   44.34  1.200  0.000 0 2 0 2  1.000  1.000   3.13    0.00     0.00    0.00   1    8.00     0    0    0   240   0.0  1   1    7    0   0.000    0.000    0.000  1
 46   1    1  1 0 2    45  16   100  256  256     0.00000   6.82002 2.51255e-004  1062  1846  -1.39   0.56  -0.10  -15.50  -37.57   43.14  1.200  0.000 0 2 0 2  1.000  1.000   3.13    0.00     0.00    0.00   1    8.00     0    0    0   240   0.0  1   1    7    0   0.000    0.000    0.000  1
 47   1    1  1 0 2    46  16   100  256  256     0.00000   6.82002 2.51255e-004  1069  1859  -1.39   0.56  -0.10  -15.52  -37.60   41.94  1.200  0.000 0 2 0 2  1.000  1.000   3.13    0.00     0.00    0.00   1    8.00     0    0    0   240   0.0  1   1    7    0   0.000    0.000    0.000  1
 48   1    1  1 0 2    47  16   100  256  256     0.00000   6.82002 2.51255e-004  1052  1828  -1.39   0.56  -0.10  -15.53  -37.63   40.74  1.200  0.000 0 2 0 2  1.000  1.000   3.13    0.00     0.00    0.00   1    8.00     0    0    0   240   0.0  1   1    7    0   0.000    0.000    0.000  1
 49   1    1  1 0 2    48  16   100  256  256     0.00000   6.82002 2.51255e-004  1069  1857  -1.39   0.56  -0.10  -15.54  -37.66   39.54  1.200  0.000 0 2 0 2  1.000  1.000   3.13    0.00     0.00    0.00   1    8.00     0    0    0   240   0.0  1   1    7    0   0.000    0.000    0.000  1
 50   1    1  1 0 2    49  16   100  256  256     0.00000   6.82002 2.51255e-004  1042  1811  -1.39   0.56  -0.10  -15.55  -37.69   38.35  1.200  0.000 0 2 0 2  1.000  1.000   3.13    0.00     0.00    0.00   1    8.00     0    0    0   240   0.0  1   1    7    0   0.000    0.000    0.000  1
 51   1    1  1 0 2    50  16   100  256  256     0.00000   6.82002 2.51255e-004  1061  1844  -1.39   0.56  -0.10  -15.56  -37.71   37.15  1.200  0.000 0 2 0 2  1.000  1.000   3.13    0.00     0.00    0.00   1    8.00     0    0    0   240   0.0  1   1    7    0   0.000    0.000    0.000  1
 52   1    1  1 0 2    51  16   100  256  256     0.00000   6.82002 2.51255e-004  1116  1941  -1.39   0.56  -0.10  -15.58  -37.74   35.95  1.200  0.000 0 2 0 2  1.000  1.000   3.13    0.00     0.00    0.00   1    8.00     0    0    0   240   0.0  1   1    7    0   0.000    0.000    0.000  1
 53   1    1  1 0 2    52  16   100  256  256     0.00000   6.82002 2.51255e-004  1108  1927  -1.39   0.56  -0.10  -15.59  -37.77   34.75  1.200  0.000 0 2 0 2  1.000  1.000   3.13    0.00     0.00    0.00   1    8.00     0    0    0   240   0.0  1   1    7    0   0.000    0.000    0.000  1
 54   1    1  1 0 2    53  16   100  256  256     0.00000   6.82002 2.51255e-004  1122  1950  -1.39   0.56  -0.10  -15.60  -37.80   33.55  1.200  0.000 0 2 0 2  1.000  1.000   3.13    0.00     0.00    0.00   1    8.00     0    0    0   240   0.0  1   1    7    0   0.000    0.000    0.000  1
 55   1    1  1 0 2    54  16   100  256  256     0.00000   6.82002 2.51255e-004  1195  2077  -1.39   0.56  -0.10  -15.61  -37.83   32.35  1.200  0.000 0 2 0 2  1.000  1.000   3.13    0.00     0.00    0.00   1    8.00     0    0    0   240   0.0  1   1    7    0   0.000    0.000    0.000  1
 56   1    1  1 0 2    55  16   100  256  256     0.00000   6.82002 2.51255e-004  1204  2093  -1.39   0.56  -0.10  -15.62  -37.86   31.15  1.200  0.000 0 2 0 2  1.000  1.000   3.13    0.00     0.00    0.00   1    8.00     0    0    0   240   0.0  1   1    7    0   0.000    0.000    0.000  1
 57   1    1  1 0 2    56  16   100  256  256     0.00000   6.82002 2.51255e-004  1218  2118  -1.39   0.56  -0.10  -15.64  -37.89   29.95  1.200  0.000 0 2 0 2  1.000  1.000   3.13    0.00     0.00    0.00   1    8.00     0    0    0   240   0.0  1   1    7    0   0.000    0.000    0.000  1
 58   1    1  1 0 2    57  16   100  256  256     0.00000   6.82002 2.51255e-004  1265  2198  -1.39   0.56  -0.10  -15.65  -37.92   28.75  1.200  0.000 0 2 0 2  1.000  1.000   3.13    0.00     0.00    0.00   1    8.00     0    0    0   240   0.0  1   1    7    0   0.000    0.000    0.000  1
 59   1    1  1 0 2    58  16   100  256  256     0.00000   6.82002 2.51255e-004  1275  2217  -1.39   0.56  -0.10  -15.66  -37.95   27.55  1.200  0.000 0 2 0 2  1.000  1.000   3.13    0.00     0.00    0.00   1    8.00     0    0    0   240   0.0  1   1    7    0   0.000    0.000    0.000  1
 60   1    1  1 0 2    59  16   100  256  256     0.00000   6.82002 2.51255e-004  1295  2250  -1.39   0.56  -0.10  -15.67  -37.98   26.35  1.200  0.000 0 2 0 2  1.000  1.000   3.13    0.00     0.00    0.00   1    8.00     0    0    0   240   0.0  1   1    7    0   0.000    0.000    0.000  1
 61   1    1  1 0 2    60  16   100  256  256     0.00000   6.82002 2.51255e-004  1280  2226  -1.39   0.56  -0.10  -15.68  -38.01   25.15  1.200  0.000 0 2 0 2  1.000  1.000   3.13    0.00     0.00    0.00   1    8.00     0    0    0   240   0.0  1   1    7    0   0.000    0.000    0.000  1
 62   1    1  1 0 2    61  16   100  256  256     0.00000   6.82002 2.51255e-004  1299  2258  -1.39   0.56  -0.10  -15.69  -38.03   23.95  1.200  0.000 0 2 0 2  1.000  1.000   3.13    0.00     0.00    0.00   1    8.00     0    0    0   240   0.0  1   1    7    0   0.000    0.000    0.000  1
 63   1    1  1 0 2    62  16   100  256  256     0.00000   6.82002 2.51255e-004  1374  2388  -1.39   0.56  -0.10  -15.71  -38.06   22.75  1.200  0.000 0 2 0 2  1.000  1.000   3.13    0.00     0.00    0.00   1    8.00     0    0    0   240   0.0  1   1    7    0   0.000    0.000    0.000  1
 64   1    1  1 0 2    63  16   100  256  256     0.00000   6.82002 2.51255e-004  1397  2429  -1.39   0.56  -0.10  -15.72  -38.09   21.55  1.200  0.000 0 2 0 2  1.000  1.000   3.13    0.00     0.00    0.00   1    8.00     0    0    0   240   0.0  1   1    7    0   0.000    0.000    0.000  1
 65   1    1  1 0 2    64  16   100  256  256     0.00000   6.82002 2.51255e-004  1433  2491  -1.39   0.56  -0.10  -15.73  -38.12   20.35  1.200  0.000 0 2 0 2  1.000  1.000   3.13    0.00     0.00    0.00   1    8.00     0    0    0   240   0.0  1   1    7    0   0.000    0.000    0.000  1
 66   1    1  1 0 2    65  16   100  256  256     0.00000   6.82002 2.51255e-004  1603  2786  -1.39   0.56  -0.10  -15.74  -38.15   19.15  1.200  0.000 0 2 0 2  1.000  1.000   3.13    0.00     0.00    0.00   1    8.00     0    0    0   240   0.0  1   1    7    0   0.000    0.000    0.000  1
 67   1    1  1 0 2    66  16   100  256  256     0.00000   6.82002 2.51255e-004  1701  2958  -1.39   0.56  -0.10  -15.75  -38.18   17.95  1.200  0.000 0 2 0 2  1.000  1.000   3.13    0.00     0.00    0.00   1    8.00     0    0    0   240   0.0  1   1    7    0   0.000    0.000    0.000  1
 68   1    1  1 0 2    67  16   100  256  256     0.00000   6.82002 2.51255e-004  1580  2746  -1.39   0.56  -0.10  -15.77  -38.21   16.75  1.200  0.000 0 2 0 2  1.000  1.000   3.13    0.00     0.00    0.00   1    8.00     0    0    0   240   0.0  1   1    7    0   0.000    0.000    0.000  1
 69   1    1  1 0 2    68  16   100  256  256     0.00000   6.82002 2.51255e-004  1350  2346  -1.39   0.56  -0.10  -15.78  -38.24   15.55  1.200  0.000 0 2 0 2  1.000  1.000   3.13    0.00     0.00    0.00   1    8.00     0    0    0   240   0.0  1   1    7    0   0.000    0.000    0.000  1
 70   1    1  1 0 2    69  16   100  256  256     0.00000   6.82002 2.51255e-004  1292  2246  -1.39   0.56  -0.10  -15.79  -38.27   14.35  1.200  0.000 0 2 0 2  1.000  1.000   3.13    0.00     0.00    0.00   1    8.00     0    0    0   240   0.0  1   1    7    0   0.000    0.000    0.000  1
 71   1    1  1 0 2    70  16   100  256  256     0.00000   6.82002 2.51255e-004  1285  2234  -1.39   0.56  -0.10  -15.80  -38.30   13.15  1.200  0.000 0 2 0 2  1.000  1.000   3.13    0.00     0.00    0.00   1    8.00     0    0    0   240   0.0  1   1    7    0   0.000    0.000    0.000  1
 72   1    1  1 0 2    71  16   100  256  256     0.00000   6.82002 2.51255e-004  1273  2213  -1.39   0.56  -0.10  -15.81  -38.32   11.95  1.200  0.000 0 2 0 2  1.000  1.000   3.13    0.00     0.00    0.00   1    8.00     0    0    0   240   0.0  1   1    7    0   0.000    0.000    0.000  1
 73   1    1  1 0 2    72  16   100  256  256     0.00000   6.82002 2.51255e-004  1283  2230  -1.39   0.56  -0.10  -15.83  -38.35   10.75  1.200  0.000 0 2 0 2  1.000  1.000   3.13    0.00     0.00    0.00   1    8.00     0    0    0   240   0.0  1   1    7    0   0.000    0.000    0.000  1
 74   1    1  1 0 2    73  16   100  256  256     0.00000   6.82002 2.51255e-004  1285  2234  -1.39   0.56  -0.10  -15.84  -38.38    9.56  1.200  0.000 0 2 0 2  1.000  1.000   3.13    0.00     0.00    0.00   1    8.00     0    0    0   240   0.0  1   1    7    0   0.000    0.000    0.000  1
 75   1    1  1 0 2    74  16   100  256  256     0.00000   6.82002 2.51255e-004  1280  2226  -1.39   0.56  -0.10  -15.85  -38.41    8.36  1.200  0.000 0 2 0 2  1.000  1.000   3.13    0.00     0.00    0.00   1    8.00     0    0    0   240   0.0  1   1    7    0   0.000    0.000    0.000  1
 76   1    1  1 0 2    75  16   100  256  256     0.00000   6.82002 2.51255e-004  1287  2236  -1.39   0.56  -0.10  -15.86  -38.44    7.16  1.200  0.000 0 2 0 2  1.000  1.000   3.13    0.00     0.00    0.00   1    8.00     0    0    0   240   0.0  1   1    7    0   0.000    0.000    0.000  1
 77   1    1  1 0 2    76  16   100  256  256     0.00000   6.82002 2.51255e-004  1291  2244  -1.39   0.56  -0.10  -15.87  -38.47    5.96  1.200  0.000 0 2 0 2  1.000  1.000   3.13    0.00     0.00    0.00   1    8.00     0    0    0   240   0.0  1   1    7    0   0.000    0.000    0.000  1
 78   1    1  1 0 2    77  16   100  256  256     0.00000   6.82002 2.51255e-004  1221  2123  -1.39   0.56  -0.10  -15.88  -38.50    4.76  1.200  0.000 0 2 0 2  1.000  1.000   3.13    0.00     0.00    0.00   1    8.00     0    0    0   240   0.0  1   1    7    0   0.000    0.000    0.000  1
 79   1    1  1 0 2    78  16   100  256  256     0.00000   6.82002 2.51255e-004  1146  1993  -1.39   0.56  -0.10  -15.90  -38.53    3.56  1.200  0.000 0 2 0 2  1.000  1.000   3.13    0.00     0.00    0.00   1    8.00     0    0    0   240   0.0  1   1    7    0   0.000    0.000    0.000  1
 80   1    1  1 0 2    79  16   100  256  256     0.00000   6.82002 2.51255e-004  1107  1924  -1.39   0.56  -0.10  -15.91  -38.56    2.36  1.200  0.000 0 2 0 2  1.000  1.000   3.13    0.00     0.00    0.00   1    8.00     0    0    0   240   0.0  1   1    7    0   0.000    0.000    0.000  1
 81   1    1  1 0 2    80  16   100  256  256     0.00000   6.82002 2.51255e-004  1063  1848  -1.39   0.56  -0.10  -15.92  -38.59    1.16  1.200  0.000 0 2 0 2  1.000  1.000   3.13    0.00     0.00    0.00   1    8.00     0    0    0   240   0.0  1   1    7    0   0.000    0.000    0.000  1
 82   1    1  1 0 2    81  16   100  256  256     0.00000   6.82002 2.51255e-004  1061  1845  -1.39   0.56  -0.10  -15.93  -38.61   -0.04  1.200  0.000 0 2 0 2  1.000  1.000   3.13    0.00     0.00    0.00   1    8.00     0    0    0   240   0.0  1   1    7    0   0.000    0.000    0.000  1
 83   1    1  1 0 2    82  16   100  256  256     0.00000   6.82002 2.51255e-004  1060  1843  -1.39   0.56  -0.10  -15.94  -38.64   -1.24  1.200  0.000 0 2 0 2  1.000  1.000   3.13    0.00     0.00    0.00   1    8.00     0    0    0   240   0.0  1   1    7    0   0.000    0.000    0.000  1
 84   1    1  1 0 2    83  16   100  256  256     0.00000   6.82002 2.51255e-004  1060  1842  -1.39   0.56  -0.10  -15.96  -38.67   -2.44  1.200  0.000 0 2 0 2  1.000  1.000   3.13    0.00     0.00    0.00   1    8.00     0    0    0   240   0.0  1   1    7    0   0.000    0.000    0.000  1
