# === DATA DESCRIPTION FILE ======================================================
#
# CAUTION - Investigational device.
# Limited by Federal Law to investigational use.
#
#
# CLINICAL TRYOUT             Research image export tool     V4.2
#
# === GENERAL INFORMATION ========================================================
#
.    Protocol name                      :   WIP 3D FLAIR Sag UMich SENSE
.    Series Type                        :   Image   MRSERIES
.    Acquisition nr                     :   4
.    Reconstruction nr                  :   1
.    Scan Duration [sec]                :   528
.    Max. number of cardiac phases      :   1
.    Max. number of echoes              :   1
.    Max. number of slices/locations    :   327
.    Max. number of dynamics            :   1
.    Max. number of mixes               :   1
.    Patient position                   :   Head First Supine
.    Preparation direction              :   Anterior-Posterior
.    Technique                          :   TIR
.    Scan resolution  (x, y)            :   216  220
.    Scan mode                          :   3D
.    Repetition time [ms]               :   8000.000  
.    FOV (ap,fh,rl) [mm]                :   240.000  200.000  179.850
.    Water Fat shift [pixels]           :   0.849
.    Angulation midslice(ap,fh,rl)[degr]:   -5.928  4.009  -0.000
.    Off Centre midslice(ap,fh,rl) [mm] :   -22.838  9.351  -2.532
.    Flow compensation <0=no 1=yes> ?   :   1
.    Presaturation     <0=no 1=yes> ?   :   0
.    Phase encoding velocity [cm/sec]   :   0.000000  0.000000  0.000000
.    MTC               <0=no 1=yes> ?   :   0
.    SPIR              <0=no 1=yes> ?   :   1
.    EPI factor        <0,1=no EPI>     :   1
.    Dynamic scan      <0=no 1=yes> ?   :   0
.    Diffusion         <0=no 1=yes> ?   :   0
.    Diffusion echo time [ms]           :   0.0000
.    Max. number of diffusion values    :   1
.    Max. number of gradient orients    :   1
.    Number of label types   <0=no ASL> :   0
#
# === PIXEL VALUES =============================================================
#  PV = pixel value in REC file, FP = floating point value, DV = displayed value on console
#  RS = rescale slope,           RI = rescale intercept,    SS = scale slope
#  DV = PV * RS + RI             FP = DV / (RS * SS)
#
# === IMAGE INFORMATION DEFINITION =============================================
#  The rest of this file contains ONE line per image, this line contains the following information:
#
#  slice number                             (integer)
#  echo number                              (integer)
#  dynamic scan number                      (integer)
#  cardiac phase number                     (integer)
#  image_type_mr                            (integer)
#  scanning sequence                        (integer)
#  index in REC file (in images)            (integer)
#  image pixel size (in bits)               (integer)
#  scan percentage                          (integer)
#  recon resolution (x y)                   (2*integer)
#  rescale intercept                        (float)
#  rescale slope                            (float)
#  scale slope                              (float)
#  window center                            (integer)
#  window width                             (integer)
#  image angulation (ap,fh,rl in degrees )  (3*float)
#  image offcentre (ap,fh,rl in mm )        (3*float)
#  slice thickness (in mm )                 (float)
#  slice gap (in mm )                       (float)
#  image_display_orientation                (integer)
#  slice orientation ( TRA/SAG/COR )        (integer)
#  fmri_status_indication                   (integer)
#  image_type_ed_es  (end diast/end syst)   (integer)
#  pixel spacing (x,y) (in mm)              (2*float)
#  echo_time                                (float)
#  dyn_scan_begin_time                      (float)
#  trigger_time                             (float)
#  diffusion_b_factor                       (float)
#  number of averages                       (integer)
#  image_flip_angle (in degrees)            (float)
#  cardiac frequency   (bpm)                (integer)
#  minimum RR-interval (in ms)              (integer)
#  maximum RR-interval (in ms)              (integer)
#  TURBO factor  <0=no turbo>               (integer)
#  Inversion delay (in ms)                  (float)
#  diffusion b value number    (imagekey!)  (integer)
#  gradient orientation number (imagekey!)  (integer)
#  contrast type                            (string)
#  diffusion anisotropy type                (string)
#  diffusion (ap, fh, rl)                   (3*float)
#  label type (ASL)            (imagekey!)  (integer)
#
# === IMAGE INFORMATION ==========================================================
#  sl ec  dyn ph ty    idx pix scan% rec size                (re)scale              window        angulation              offcentre        thick   gap   info      spacing     echo     dtime   ttime    diff  avg  flip    freq   RR-int  turbo delay b grad cont anis         diffusion       L.ty

  1   1    1  1 0 0     0  16    79  576  576     0.00000   4.91209 1.00511e-003    17    29  -5.93   4.01  -0.00  -16.57   18.59   86.42  1.100 -0.550 0 2 0 2  0.417  0.417 330.16    0.00     0.00    0.00   1   90.00     0    0    0   110 2400.0  1   1    8    0   0.000    0.000    0.000  1
  2   1    1  1 0 0     1  16    79  576  576     0.00000   4.91209 1.00511e-003    24    41  -5.93   4.01  -0.00  -16.61   18.53   85.88  1.100 -0.550 0 2 0 2  0.417  0.417 330.16    0.00     0.00    0.00   1   90.00     0    0    0   110 2400.0  1   1    8    0   0.000    0.000    0.000  1
  3   1    1  1 0 0     2  16    79  576  576     0.00000   4.91209 1.00511e-003    27    47  -5.93   4.01  -0.00  -16.65   18.47   85.33  1.100 -0.550 0 2 0 2  0.417  0.417 330.16    0.00     0.00    0.00   1   90.00     0    0    0   110 2400.0  1   1    8    0   0.000    0.000    0.000  1
  4   1    1  1 0 0     3  16    79  576  576     0.00000   4.91209 1.00511e-003    37    64  -5.93   4.01  -0.00  -16.69   18.42   84.78  1.100 -0.550 0 2 0 2  0.417  0.417 330.16    0.00     0.00    0.00   1   90.00     0    0    0   110 2400.0  1   1    8    0   0.000    0.000    0.000  1
  5   1    1  1 0 0     4  16    79  576  576     0.00000   4.91209 1.00511e-003    67   116  -5.93   4.01  -0.00  -16.72   18.36   84.24  1.100 -0.550 0 2 0 2  0.417  0.417 330.16    0.00     0.00    0.00   1   90.00     0    0    0   110 2400.0  1   1    8    0   0.000    0.000    0.000  1
  6   1    1  1 0 0     5  16    79  576  576     0.00000   4.91209 1.00511e-003    88   154  -5.93   4.01  -0.00  -16.76   18.30   83.69  1.100 -0.550 0 2 0 2  0.417  0.417 330.16    0.00     0.00    0.00   1   90.00     0    0    0   110 2400.0  1   1    8    0   0.000    0.000    0.000  1
  7   1    1  1 0 0     6  16    79  576  576     0.00000   4.91209 1.00511e-003   104   181  -5.93   4.01  -0.00  -16.80   18.25   83.15  1.100 -0.550 0 2 0 2  0.417  0.417 330.16    0.00     0.00    0.00   1   90.00     0    0    0   110 2400.0  1   1    8    0   0.000    0.000    0.000  1
  8   1    1  1 0 0     7  16    79  576  576     0.00000   4.91209 1.00511e-003   116   202  -5.93   4.01  -0.00  -16.84   18.19   82.60  1.100 -0.550 0 2 0 2  0.417  0.417 330.16    0.00     0.00    0.00   1   90.00     0    0    0   110 2400.0  1   1    8    0   0.000    0.000    0.000  1
  9   1    1  1 0 0     8  16    79  576  576     0.00000   4.91209 1.00511e-003   123   214  -5.93   4.01  -0.00  -16.88   18.13   82.06  1.100 -0.550 0 2 0 2  0.417  0.417 330.16    0.00     0.00    0.00   1   90.00     0    0    0   110 2400.0  1   1    8    0   0.000    0.000    0.000  1
 10   1    1  1 0 0     9  16    79  576  576     0.00000   4.91209 1.00511e-003   129   225  -5.93   4.01  -0.00  -16.92   18.08   81.51  1.100 -0.550 0 2 0 2  0.417  0.417 330.16    0.00     0.00    0.00   1   90.00     0    0    0   110 2400.0  1   1    8    0   0.000    0.000    0.000  1
 11   1    1  1 0 0    10  16    79  576  576     0.00000   4.91209 1.00511e-003   142   247  -5.93   4.01  -0.00  -16.95   18.02   80.96  1.100 -0.550 0 2 0 2  0.417  0.417 330.16    0.00     0.00    0.00   1   90.00     0    0    0   110 2400.0  1   1    8    0   0.000    0.000    0.000  1
 12   1    1  1 0 0    11  16    79  576  576     0.00000   4.91209 1.00511e-003   150   261  -5.93   4.01  -0.00  -16.99   17.96   80.42  1.100 -0.550 0 2 0 2  0.417  0.417 330.16    0.00     0.00    0.00   1   90.00     0    0    0   110 2400.0  1   1    8    0   0.000    0.000    0.000  1
 13   1    1  1 0 0    12  16    79  576  576     0.00000   4.91209 1.00511e-003   161   281  -5.93   4.01  -0.00  -17.03   17.91   79.87  1.100 -0.550 0 2 0 2  0.417  0.417 330.16    0.00     0.00    0.00   1   90.00     0    0    0   110 2400.0  1   1    8    0   0.000    0.000    0.000  1
 14   1    1  1 0 0    13  16    79  576  576     0.00000   4.91209 1.00511e-003   172   299  -5.93   4.01  -0.00  -17.07   17.85   79.33  1.100 -0.550 0 2 0 2  0.417  0.417 330.16    0.00     0.00    0.00   1   90.00     0    0    0   110 2400.0  1   1    8    0   0.000    0.000    0.000  1
 15   1    1  1 0 0    14  16    79  576  576     0.00000   4.91209 1.00511e-003   182   316  -5.93   4.01  -0.00  -17.11   17.79   78.78  1.100 -0.550 0 2 0 2  0.417  0.417 330.16    0.00     0.00    0.00   1   90.00     0    0    0   110 2400.0  1   1    8    0   0.000    0.000    0.000  1
 16   1    1  1 0 0    15  16    79  576  576     0.00000   4.91209 1.00511e-003   187   325  -5.93   4.01  -0.00  -17.15   17.74   78.24  1.100 -0.550 0 2 0 2  0.417  0.417 330.16    0.00     0.00    0.00   1   90.00     0    0    0   110 2400.0  1   1    8    0   0.000    0.000    0.000  1
 17   1    1  1 0 0    16  16    79  576  576     0.00000   4.91209 1.00511e-003   191   331  -5.93   4.01  -0.00  -17.19   17.68   77.69  1.100 -0.550 0 2 0 2  0.417  0.417 330.16    0.00     0.00    0.00   1   90.00     0    0    0   110 2400.0  1   1    8    0   0.000    0.000    0.000  1
 18   1    1  1 0 0    17  16    79  576  576     0.00000   4.91209 1.00511e-003   193   335  -5.93   4.01  -0.00  -17.22   17.62   77.14  1.100 -0.550 0 2 0 2  0.417  0.417 330.16    0.00     0.00    0.00   1   90.00     0    0    0   110 2400.0  1   1    8    0   0.000    0.000    0.000  1
 19   1    1  1 0 0    18  16    79  576  576     0.00000   4.91209 1.00511e-003   204   355  -5.93   4.01  -0.00  -17.26   17.57   76.60  1.100 -0.550 0 2 0 2  0.417  0.417 330.16    0.00     0.00    0.00   1   90.00     0    0    0   110 2400.0  1   1    8    0   0.000    0.000    0.000  1
 20   1    1  1 0 0    19  16    79  576  576     0.00000   4.91209 1.00511e-003   209   363  -5.93   4.01  -0.00  -17.30   17.51   76.05  1.100 -0.550 0 2 0 2  0.417  0.417 330.16    0.00     0.00    0.00   1   90.00     0    0    0   110 2400.0  1   1    8    0   0.000    0.000    0.000  1
 21   1    1  1 0 0    20  16    79  576  576     0.00000   4.91209 1.00511e-003   210   366  -5.93   4.01  -0.00  -17.34   17.45   75.51  1.100 -0.550 0 2 0 2  0.417  0.417 330.16    0.00     0.00    0.00   1   90.00     0    0    0   110 2400.0  1   1    8    0   0.000    0.000    0.000  1
 22   1    1  1 0 0    21  16    79  576  576     0.00000   4.91209 1.00511e-003   218   379  -5.93   4.01  -0.00  -17.38   17.40   74.96  1.100 -0.550 0 2 0 2  0.417  0.417 330.16    0.00     0.00    0.00   1   90.00     0    0    0   110 2400.0  1   1    8    0   0.000    0.000    0.000  1
 23   1    1  1 0 0    22  16    79  576  576     0.00000   4.91209 1.00511e-003   228   396  -5.93   4.01  -0.00  -17.42   17.34   74.41  1.100 -0.550 0 2 0 2  0.417  0.417 330.16    0.00     0.00    0.00   1   90.00     0    0    0   110 2400.0  1   1    8    0   0.000    0.000    0.000  1
 24   1    1  1 0 0    23  16    79  576  576     0.00000   4.91209 1.00511e-003   238   413  -5.93   4.01  -0.00  -17.45   17.28   73.87  1.100 -0.550 0 2 0 2  0.417  0.417 330.16    0.00     0.00    0.00   1   90.00     0    0    0   110 2400.0  1   1    8    0   0.000    0.000    0.000  1
 25   1    1  1 0 0    24  16    79  576  576     0.00000   4.91209 1.00511e-003   249   433  -5.93   4.01  -0.00  -17.49   17.23   73.32  1.100 -0.550 0 2 0 2  0.417  0.417 330.16    0.00     0.00    0.00   1   90.00     0    0    0   110 2400.0  1   1    8    0   0.000    0.000    0.000  1
 26   1    1  1 0 0    25  16    79  576  576     0.00000   4.91209 1.00511e-003   262   455  -5.93   4.01  -0.00  -17.53   17.17   72.78  1.100 -0.550 0 2 0 2  0.417  0.417 330.16    0.00     0.00    0.00   1   90.00     0    0    0   110 2400.0  1   1    8    0   0.000    0.000    0.000  1
 27   1    1  1 0 0    26  16    79  576  576     0.00000   4.91209 1.00511e-003   281   489  -5.93   4.01  -0.00  -17.57   17.11   72.23  1.100 -0.550 0 2 0 2  0.417  0.417 330.16    0.00     0.00    0.00   1   90.00     0    0    0   110 2400.0  1   1    8    0   0.000    0.000    0.000  1
 28   1    1  1 0 0    27  16    79  576  576     0.00000   4.91209 1.00511e-003   307   533  -5.93   4.01  -0.00  -17.61   17.06   71.69  1.100 -0.550 0 2 0 2  0.417  0.417 330.16    0.00     0.00    0.00   1   90.00     0    0    0   110 2400.0  1   1    8    0   0.000    0.000    0.000  1
 29   1    1  1 0 0    28  16    79  576  576     0.00000   4.91209 1.00511e-003   292   508  -5.93   4.01  -0.00  -17.65   17.00   71.14  1.100 -0.550 0 2 0 2  0.417  0.417 330.16    0.00     0.00    0.00   1   90.00     0    0    0   110 2400.0  1   1    8    0   0.000    0.000    0.000  1
 30   1    1  1 0 0    29  16    79  576  576     0.00000   4.91209 1.00511e-003   288   501  -5.93   4.01  -0.00  -17.69   16.94   70.59  1.100 -0.550 0 2 0 2  0.417  0.417 330.16    0.00     0.00    0.00   1   90.00     0    0    0   110 2400.0  1   1    8    0   0.000    0.000    0.000  1
 31   1    1  1 0 0    30  16    79  576  576     0.00000   4.91209 1.00511e-003   284   494  -5.93   4.01  -0.00  -17.72   16.89   70.05  1.100 -0.550 0 2 0 2  0.417  0.417 330.16    0.00     0.00    0.00   1   90.00     0    0    0   110 2400.0  1   1    8    0   0.000    0.000    0.000  1
 32   1    1  1 0 0    31  16    79  576  576     0.00000   4.91209 1.00511e-003   285   495  -5.93   4.01  -0.00  -17.76   16.83   69.50  1.100 -0.550 0 2 0 2  0.417  0.417 330.16    0.00     0.00    0.00   1   90.00     0    0    0   110 2400.0  1   1    8    0   0.000    0.000    0.000  1
 33   1    1  1 0 0    32  16    79  576  576     0.00000   4.91209 1.00511e-003   287   499  -5.93   4.01  -0.00  -17.80   16.77   68.96  1.100 -0.550 0 2 0 2  0.417  0.417 330.16    0.00     0.00    0.00   1   90.00     0    0    0   110 2400.0  1   1    8    0   0.000    0.000    0.000  1
 34   1    1  1 0 0    33  16    79  576  576     0.00000   4.91209 1.00511e-003   300   521  -5.93   4.01  -0.00  -17.84   16.72   68.41  1.100 -0.550 0 2 0 2  0.417  0.417 330.16    0.00     0.00    0.00   1   90.00     0    0    0   110 2400.0  1   1    8    0   0.000    0.000    0.000  1
 35   1    1  1 0 0    34  16    79  576  576     0.00000   4.91209 1.00511e-003   343   596  -5.93   4.01  -0.00  -17.88   16.66   67.87  1.100 -0.550 0 2 0 2  0.417  0.417 330.16    0.00     0.00    0.00   1   90.00     0    0    0   110 2400.0  1   1    8    0   0.000    0.000    0.000  1
 36   1    1  1 0 0    35  16    79  576  576     0.00000   4.91209 1.00511e-003   389   676  -5.93   4.01  -0.00  -17.92   16.60   67.32  1.100 -0.550 0 2 0 2  0.417  0.417 330.16    0.00     0.00    0.00   1   90.00     0    0    0   110 2400.0  1   1    8    0   0.000    0.000    0.000  1
 37   1    1  1 0 0    36  16    79  576  576     0.00000   4.91209 1.00511e-003   426   741  -5.93   4.01  -0.00  -17.95   16.55   66.77  1.100 -0.550 0 2 0 2  0.417  0.417 330.16    0.00     0.00    0.00   1   90.00     0    0    0   110 2400.0  1   1    8    0   0.000    0.000    0.000  1
 38   1    1  1 0 0    37  16    79  576  576     0.00000   4.91209 1.00511e-003   437   759  -5.93   4.01  -0.00  -17.99   16.49   66.23  1.100 -0.550 0 2 0 2  0.417  0.417 330.16    0.00     0.00    0.00   1   90.00     0    0    0   110 2400.0  1   1    8    0   0.000    0.000    0.000  1
 39   1    1  1 0 0    38  16    79  576  576     0.00000   4.91209 1.00511e-003   421   733  -5.93   4.01  -0.00  -18.03   16.43   65.68  1.100 -0.550 0 2 0 2  0.417  0.417 330.16    0.00     0.00    0.00   1   90.00     0    0    0   110 2400.0  1   1    8    0   0.000    0.000    0.000  1
 40   1    1  1 0 0    39  16    79  576  576     0.00000   4.91209 1.00511e-003   413   718  -5.93   4.01  -0.00  -18.07   16.38   65.14  1.100 -0.550 0 2 0 2  0.417  0.417 330.16    0.00     0.00    0.00   1   90.00     0    0    0   110 2400.0  1   1    8    0   0.000    0.000    0.000  1
 41   1    1  1 0 0    40  16    79  576  576     0.00000   4.91209 1.00511e-003   445   774  -5.93   4.01  -0.00  -18.11   16.32   64.59  1.100 -0.550 0 2 0 2  0.417  0.417 330.16    0.00     0.00    0.00   1   90.00     0    0    0   110 2400.0  1   1    8    0   0.000    0.000    0.000  1
 42   1    1  1 0 0    41  16    79  576  576     0.00000   4.91209 1.00511e-003   438   761  -5.93   4.01  -0.00  -18.15   16.26   64.05  1.100 -0.550 0 2 0 2  0.417  0.417 330.16    0.00     0.00    0.00   1   90.00     0    0    0   110 2400.0  1   1    8    0   0.000    0.000    0.000  1
 43   1    1  1 0 0    42  16    79  576  576     0.00000   4.91209 1.00511e-003   440   766  -5.93   4.01  -0.00  -18.18   16.21   63.50  1.100 -0.550 0 2 0 2  0.417  0.417 330.16    0.00     0.00    0.00   1   90.00     0    0    0   110 2400.0  1   1    8    0   0.000    0.000    0.000  1
 44   1    1  1 0 0    43  16    79  576  576     0.00000   4.91209 1.00511e-003   447   777  -5.93   4.01  -0.00  -18.22   16.15   62.95  1.100 -0.550 0 2 0 2  0.417  0.417 330.16    0.00     0.00    0.00   1   90.00     0    0    0   110 2400.0  1   1    8    0   0.000    0.000    0.000  1
 45   1    1  1 0 0    44  16    79  576  576     0.00000   4.91209 1.00511e-003   460   800  -5.93   4.01  -0.00  -18.26   16.09   62.41  1.100 -0.550 0 2 0 2  0.417  0.417 330.16    0.00     0.00    0.00   1   90.00     0    0    0   110 2400.0  1   1    8    0   0.000    0.000    0.000  1
 46   1    1  1 0 0    45  16    79  576  576     0.00000   4.91209 1.00511e-003   475   826  -5.93   4.01  -0.00  -18.30   16.04   61.86  1.100 -0.550 0 2 0 2  0.417  0.417 330.16    0.00     0.00    0.00   1   90.00     0    0    0   110 2400.0  1   1    8    0   0.000    0.000    0.000  1
 47   1    1  1 0 0    46  16    79  576  576     0.00000   4.91209 1.00511e-003   481   836  -5.93   4.01  -0.00  -18.34   15.98   61.32  1.100 -0.550 0 2 0 2  0.417  0.417 330.16    0.00     0.00    0.00   1   90.00     0    0    0   110 2400.0  1   1    8    0   0.000    0.000    0.000  1
 48   1    1  1 0 0    47  16    79  576  576     0.00000   4.91209 1.00511e-003   487   847  -5.93   4.01  -0.00  -18.38   15.92   60.77  1.100 -0.550 0 2 0 2  0.417  0.417 330.16    0.00     0.00    0.00   1   90.00     0    0    0   110 2400.0  1   1    8    0   0.000    0.000    0.000  1
 49   1    1  1 0 0    48  16    79  576  576     0.00000   4.91209 1.00511e-003   490   851  -5.93   4.01  -0.00  -18.42   15.87   60.23  1.100 -0.550 0 2 0 2  0.417  0.417 330.16    0.00     0.00    0.00   1   90.00     0    0    0   110 2400.0  1   1    8    0   0.000    0.000    0.000  1
 50   1    1  1 0 0    49  16    79  576  576     0.00000   4.91209 1.00511e-003   483   839  -5.93   4.01  -0.00  -18.45   15.81   59.68  1.100 -0.550 0 2 0 2  0.417  0.417 330.16    0.00     0.00    0.00   1   90.00     0    0    0   110 2400.0  1   1    8    0   0.000    0.000    0.000  1
 51   1    1  1 0 0    50  16    79  576  576     0.00000   4.91209 1.00511e-003   481   837  -5.93   4.01  -0.00  -18.49   15.75   59.13  1.100 -0.550 0 2 0 2  0.417  0.417 330.16    0.00     0.00    0.00   1   90.00     0    0    0   110 2400.0  1   1    8    0   0.000    0.000    0.000  1
 52   1    1  1 0 0    51  16    79  576  576     0.00000   4.91209 1.00511e-003   485   843  -5.93   4.01  -0.00  -18.53   15.70   58.59  1.100 -0.550 0 2 0 2  0.417  0.417 330.16    0.00     0.00    0.00   1   90.00     0    0    0   110 2400.0  1   1    8    0   0.000    0.000    0.000  1
 53   1    1  1 0 0    52  16    79  576  576     0.00000   4.91209 1.00511e-003   493   856  -5.93   4.01  -0.00  -18.57   15.64   58.04  1.100 -0.550 0 2 0 2  0.417  0.417 330.16    0.00     0.00    0.00   1   90.00     0    0    0   110 2400.0  1   1    8    0   0.000    0.000    0.000  1
 54   1    1  1 0 0    53  16    79  576  576     0.00000   4.91209 1.00511e-003   507   881  -5.93   4.01  -0.00  -18.61   15.58   57.50  1.100 -0.550 0 2 0 2  0.417  0.417 330.16    0.00     0.00    0.00   1   90.00     0    0    0   110 2400.0  1   1    8    0   0.000    0.000    0.000  1
 55   1    1  1 0 0    54  16    79  576  576     0.00000   4.91209 1.00511e-003   509   884  -5.93   4.01  -0.00  -18.65   15.53   56.95  1.100 -0.550 0 2 0 2  0.417  0.417 330.16    0.00     0.00    0.00   1   90.00     0    0    0   110 2400.0  1   1    8    0   0.000    0.000    0.000  1
 56   1    1  1 0 0    55  16    79  576  576     0.00000   4.91209 1.00511e-003   526   915  -5.93   4.01  -0.00  -18.68   15.47   56.41  1.100 -0.550 0 2 0 2  0.417  0.417 330.16    0.00     0.00    0.00   1   90.00     0    0    0   110 2400.0  1   1    8    0   0.000    0.000    0.000  1
 57   1    1  1 0 0    56  16    79  576  576     0.00000   4.91209 1.00511e-003   548   952  -5.93   4.01  -0.00  -18.72   15.41   55.86  1.100 -0.550 0 2 0 2  0.417  0.417 330.16    0.00     0.00    0.00   1   90.00     0    0    0   110 2400.0  1   1    8    0   0.000    0.000    0.000  1
 58   1    1  1 0 0    57  16    79  576  576     0.00000   4.91209 1.00511e-003   577  1003  -5.93   4.01  -0.00  -18.76   15.36   55.31  1.100 -0.550 0 2 0 2  0.417  0.417 330.16    0.00     0.00    0.00   1   90.00     0    0    0   110 2400.0  1   1    8    0   0.000    0.000    0.000  1
 59   1    1  1 0 0    58  16    79  576  576     0.00000   4.91209 1.00511e-003   603  1048  -5.93   4.01  -0.00  -18.80   15.30   54.77  1.100 -0.550 0 2 0 2  0.417  0.417 330.16    0.00     0.00    0.00   1   90.00     0    0    0   110 2400.0  1   1    8    0   0.000    0.000    0.000  1
 60   1    1  1 0 0    59  16    79  576  576     0.00000   4.91209 1.00511e-003   640  1112  -5.93   4.01  -0.00  -18.84   15.24   54.22  1.100 -0.550 0 2 0 2  0.417  0.417 330.16    0.00     0.00    0.00   1   90.00     0    0    0   110 2400.0  1   1    8    0   0.000    0.000    0.000  1
 61   1    1  1 0 0    60  16    79  576  576     0.00000   4.91209 1.00511e-003   668  1161  -5.93   4.01  -0.00  -18.88   15.19   53.68  1.100 -0.550 0 2 0 2  0.417  0.417 330.16    0.00     0.00    0.00   1   90.00     0    0    0   110 2400.0  1   1    8    0   0.000    0.000    0.000  1
 62   1    1  1 0 0    61  16    79  576  576     0.00000   4.91209 1.00511e-003   701  1219  -5.93   4.01  -0.00  -18.92   15.13   53.13  1.100 -0.550 0 2 0 2  0.417  0.417 330.16    0.00     0.00    0.00   1   90.00     0    0    0   110 2400.0  1   1    8    0   0.000    0.000    0.000  1
 63   1    1  1 0 0    62  16    79  576  576     0.00000   4.91209 1.00511e-003   740  1286  -5.93   4.01  -0.00  -18.95   15.07   52.59  1.100 -0.550 0 2 0 2  0.417  0.417 330.16    0.00     0.00    0.00   1   90.00     0    0    0   110 2400.0  1   1    8    0   0.000    0.000    0.000  1
 64   1    1  1 0 0    63  16    79  576  576     0.00000   4.91209 1.00511e-003   780  1355  -5.93   4.01  -0.00  -18.99   15.02   52.04  1.100 -0.550 0 2 0 2  0.417  0.417 330.16    0.00     0.00    0.00   1   90.00     0    0    0   110 2400.0  1   1    8    0   0.000    0.000    0.000  1
 65   1    1  1 0 0    64  16    79  576  576     0.00000   4.91209 1.00511e-003   796  1384  -5.93   4.01  -0.00  -19.03   14.96   51.49  1.100 -0.550 0 2 0 2  0.417  0.417 330.16    0.00     0.00    0.00   1   90.00     0    0    0   110 2400.0  1   1    8    0   0.000    0.000    0.000  1
 66   1    1  1 0 0    65  16    79  576  576     0.00000   4.91209 1.00511e-003   811  1411  -5.93   4.01  -0.00  -19.07   14.90   50.95  1.100 -0.550 0 2 0 2  0.417  0.417 330.16    0.00     0.00    0.00   1   90.00     0    0    0   110 2400.0  1   1    8    0   0.000    0.000    0.000  1
 67   1    1  1 0 0    66  16    79  576  576     0.00000   4.91209 1.00511e-003   845  1469  -5.93   4.01  -0.00  -19.11   14.85   50.40  1.100 -0.550 0 2 0 2  0.417  0.417 330.16    0.00     0.00    0.00   1   90.00     0    0    0   110 2400.0  1   1    8    0   0.000    0.000    0.000  1
 68   1    1  1 0 0    67  16    79  576  576     0.00000   4.91209 1.00511e-003   878  1526  -5.93   4.01  -0.00  -19.15   14.79   49.86  1.100 -0.550 0 2 0 2  0.417  0.417 330.16    0.00     0.00    0.00   1   90.00     0    0    0   110 2400.0  1   1    8    0   0.000    0.000    0.000  1
 69   1    1  1 0 0    68  16    79  576  576     0.00000   4.91209 1.00511e-003   879  1528  -5.93   4.01  -0.00  -19.18   14.73   49.31  1.100 -0.550 0 2 0 2  0.417  0.417 330.16    0.00     0.00    0.00   1   90.00     0    0    0   110 2400.0  1   1    8    0   0.000    0.000    0.000  1
 70   1    1  1 0 0    69  16    79  576  576     0.00000   4.91209 1.00511e-003   898  1562  -5.93   4.01  -0.00  -19.22   14.68   48.77  1.100 -0.550 0 2 0 2  0.417  0.417 330.16    0.00     0.00    0.00   1   90.00     0    0    0   110 2400.0  1   1    8    0   0.000    0.000    0.000  1
 71   1    1  1 0 0    70  16    79  576  576     0.00000   4.91209 1.00511e-003   913  1588  -5.93   4.01  -0.00  -19.26   14.62   48.22  1.100 -0.550 0 2 0 2  0.417  0.417 330.16    0.00     0.00    0.00   1   90.00     0    0    0   110 2400.0  1   1    8    0   0.000    0.000    0.000  1
 72   1    1  1 0 0    71  16    79  576  576     0.00000   4.91209 1.00511e-003   913  1587  -5.93   4.01  -0.00  -19.30   14.56   47.67  1.100 -0.550 0 2 0 2  0.417  0.417 330.16    0.00     0.00    0.00   1   90.00     0    0    0   110 2400.0  1   1    8    0   0.000    0.000    0.000  1
 73   1    1  1 0 0    72  16    79  576  576     0.00000   4.91209 1.00511e-003   895  1556  -5.93   4.01  -0.00  -19.34   14.51   47.13  1.100 -0.550 0 2 0 2  0.417  0.417 330.16    0.00     0.00    0.00   1   90.00     0    0    0   110 2400.0  1   1    8    0   0.000    0.000    0.000  1
 74   1    1  1 0 0    73  16    79  576  576     0.00000   4.91209 1.00511e-003   926  1609  -5.93   4.01  -0.00  -19.38   14.45   46.58  1.100 -0.550 0 2 0 2  0.417  0.417 330.16    0.00     0.00    0.00   1   90.00     0    0    0   110 2400.0  1   1    8    0   0.000    0.000    0.000  1
 75   1    1  1 0 0    74  16    79  576  576     0.00000   4.91209 1.00511e-003   951  1653  -5.93   4.01  -0.00  -19.42   14.39   46.04  1.100 -0.550 0 2 0 2  0.417  0.417 330.16    0.00     0.00    0.00   1   90.00     0    0    0   110 2400.0  1   1    8    0   0.000    0.000    0.000  1
 76   1    1  1 0 0    75  16    79  576  576     0.00000   4.91209 1.00511e-003   961  1670  -5.93   4.01  -0.00  -19.45   14.34   45.49  1.100 -0.550 0 2 0 2  0.417  0.417 330.16    0.00     0.00    0.00   1   90.00     0    0    0   110 2400.0  1   1    8    0   0.000    0.000    0.000  1
 77   1    1  1 0 0    76  16    79  576  576     0.00000   4.91209 1.00511e-003   960  1669  -5.93   4.01  -0.00  -19.49   14.28   44.95  1.100 -0.550 0 2 0 2  0.417  0.417 330.16    0.00     0.00    0.00   1   90.00     0    0    0   110 2400.0  1   1    8    0   0.000    0.000    0.000  1
 78   1    1  1 0 0    77  16    79  576  576     0.00000   4.91209 1.00511e-003   981  1706  -5.93   4.01  -0.00  -19.53   14.22   44.40  1.100 -0.550 0 2 0 2  0.417  0.417 330.16    0.00     0.00    0.00   1   90.00     0    0    0   110 2400.0  1   1    8    0   0.000    0.000    0.000  1
 79   1    1  1 0 0    78  16    79  576  576     0.00000   4.91209 1.00511e-003   984  1710  -5.93   4.01  -0.00  -19.57   14.17   43.85  1.100 -0.550 0 2 0 2  0.417  0.417 330.16    0.00     0.00    0.00   1   90.00     0    0    0   110 2400.0  1   1    8    0   0.000    0.000    0.000  1
 80   1    1  1 0 0    79  16    79  576  576     0.00000   4.91209 1.00511e-003   981  1706  -5.93   4.01  -0.00  -19.61   14.11   43.31  1.100 -0.550 0 2 0 2  0.417  0.417 330.16    0.00     0.00    0.00   1   90.00     0    0    0   110 2400.0  1   1    8    0   0.000    0.000    0.000  1
 81   1    1  1 0 0    80  16    79  576  576     0.00000   4.91209 1.00511e-003   992  1725  -5.93   4.01  -0.00  -19.65   14.05   42.76  1.100 -0.550 0 2 0 2  0.417  0.417 330.16    0.00     0.00    0.00   1   90.00     0    0    0   110 2400.0  1   1    8    0   0.000    0.000    0.000  1
 82   1    1  1 0 0    81  16    79  576  576     0.00000   4.91209 1.00511e-003   995  1730  -5.93   4.01  -0.00  -19.68   14.00   42.22  1.100 -0.550 0 2 0 2  0.417  0.417 330.16    0.00     0.00    0.00   1   90.00     0    0    0   110 2400.0  1   1    8    0   0.000    0.000    0.000  1
 83   1    1  1 0 0    82  16    79  576  576     0.00000   4.91209 1.00511e-003  1007  1750  -5.93   4.01  -0.00  -19.72   13.94   41.67  1.100 -0.550 0 2 0 2  0.417  0.417 330.16    0.00     0.00    0.00   1   90.00     0    0    0   110 2400.0  1   1    8    0   0.000    0.000    0.000  1
 84   1    1  1 0 0    83  16    79  576  576     0.00000   4.91209 1.00511e-003  1006  1749  -5.93   4.01  -0.00  -19.76   13.88   41.13  1.100 -0.550 0 2 0 2  0.417  0.417 330.16    0.00     0.00    0.00   1   90.00     0    0    0   110 2400.0  1   1    8    0   0.000    0.000    0.000  1
