# === DATA DESCRIPTION FILE ======================================================
#
# CAUTION - Investigational device.
# Limited by Federal Law to investigational use.
#
#
# CLINICAL TRYOUT             Research image export tool     V4.2
#
# === GENERAL INFORMATION ========================================================
#
.    Protocol name                      :   WIP T2W_VISTA_2mmiso_fatsat SENSE
.    Series Type                        :   Image   MRSERIES
.    Acquisition nr                     :   15
.    Reconstruction nr                  :   1
.    Scan Duration [sec]                :   108
.    Max. number of cardiac phases      :   1
.    Max. number of echoes              :   1
.    Max. number of slices/locations    :   180
.    Max. number of dynamics            :   1
.    Max. number of mixes               :   1
.    Patient position                   :   Head First Supine
.    Preparation direction              :   Anterior-Posterior
.    Technique                          :   TSE
.    Scan resolution  (x, y)            :   120  118
.    Scan mode                          :   3D
.    Repetition time [ms]               :   2500.000  
.    FOV (ap,fh,rl) [mm]                :   240.000  200.000  180.000
.    Water Fat shift [pixels]           :   1.050
.    Angulation midslice(ap,fh,rl)[degr]:   -2.572  1.482  -0.113
.    Off Centre midslice(ap,fh,rl) [mm] :   -13.476  0.113  2.241
.    Flow compensation <0=no 1=yes> ?   :   0
.    Presaturation     <0=no 1=yes> ?   :   0
.    Phase encoding velocity [cm/sec]   :   0.000000  0.000000  0.000000
.    MTC               <0=no 1=yes> ?   :   0
.    SPIR              <0=no 1=yes> ?   :   1
.    EPI factor        <0,1=no EPI>     :   1
.    Dynamic scan      <0=no 1=yes> ?   :   0
.    Diffusion         <0=no 1=yes> ?   :   0
.    Diffusion echo time [ms]           :   0.0000
.    Max. number of diffusion values    :   1
.    Max. number of gradient orients    :   1
.    Number of label types   <0=no ASL> :   0
#
# === PIXEL VALUES =============================================================
#  PV = pixel value in REC file, FP = floating point value, DV = displayed value on console
#  RS = rescale slope,           RI = rescale intercept,    SS = scale slope
#  DV = PV * RS + RI             FP = DV / (RS * SS)
#
# === IMAGE INFORMATION DEFINITION =============================================
#  The rest of this file contains ONE line per image, this line contains the following information:
#
#  slice number                             (integer)
#  echo number                              (integer)
#  dynamic scan number                      (integer)
#  cardiac phase number                     (integer)
#  image_type_mr                            (integer)
#  scanning sequence                        (integer)
#  index in REC file (in images)            (integer)
#  image pixel size (in bits)               (integer)
#  scan percentage                          (integer)
#  recon resolution (x y)                   (2*integer)
#  rescale intercept                        (float)
#  rescale slope                            (float)
#  scale slope                              (float)
#  window center                            (integer)
#  window width                             (integer)
#  image angulation (ap,fh,rl in degrees )  (3*float)
#  image offcentre (ap,fh,rl in mm )        (3*float)
#  slice thickness (in mm )                 (float)
#  slice gap (in mm )                       (float)
#  image_display_orientation                (integer)
#  slice orientation ( TRA/SAG/COR )        (integer)
#  fmri_status_indication                   (integer)
#  image_type_ed_es  (end diast/end syst)   (integer)
#  pixel spacing (x,y) (in mm)              (2*float)
#  echo_time                                (float)
#  dyn_scan_begin_time                      (float)
#  trigger_time                             (float)
#  diffusion_b_factor                       (float)
#  number of averages                       (integer)
#  image_flip_angle (in degrees)            (float)
#  cardiac frequency   (bpm)                (integer)
#  minimum RR-interval (in ms)              (integer)
#  maximum RR-interval (in ms)              (integer)
#  TURBO factor  <0=no turbo>               (integer)
#  Inversion delay (in ms)                  (float)
#  diffusion b value number    (imagekey!)  (integer)
#  gradient orientation number (imagekey!)  (integer)
#  contrast type                            (string)
#  diffusion anisotropy type                (string)
#  diffusion (ap, fh, rl)                   (3*float)
#  label type (ASL)            (imagekey!)  (integer)
#
# === IMAGE INFORMATION ==========================================================
#  sl ec  dyn ph ty    idx pix scan% rec size                (re)scale              window        angulation              offcentre        thick   gap   info      spacing     echo     dtime   ttime    diff  avg  flip    freq   RR-int  turbo delay b grad cont anis         diffusion       L.ty

  1   1    1  1 0 1     0  16    77  256  256     0.00000   1.36337 1.65616e-004    34    60  -2.57   1.48  -0.11  -11.15    4.12   91.62  2.000 -1.000 0 2 0 2  0.943  0.943 287.22    0.00     0.00    0.00   2   90.00     0    0    0   100   0.0  1   1    8    0   0.000    0.000    0.000  1
  2   1    1  1 0 1     1  16    77  256  256     0.00000   1.36337 1.65616e-004    76   133  -2.57   1.48  -0.11  -11.18    4.08   90.62  2.000 -1.000 0 2 0 2  0.943  0.943 287.22    0.00     0.00    0.00   2   90.00     0    0    0   100   0.0  1   1    8    0   0.000    0.000    0.000  1
  3   1    1  1 0 1     2  16    77  256  256     0.00000   1.36337 1.65616e-004    78   136  -2.57   1.48  -0.11  -11.20    4.03   89.62  2.000 -1.000 0 2 0 2  0.943  0.943 287.22    0.00     0.00    0.00   2   90.00     0    0    0   100   0.0  1   1    8    0   0.000    0.000    0.000  1
  4   1    1  1 0 1     3  16    77  256  256     0.00000   1.36337 1.65616e-004    78   135  -2.57   1.48  -0.11  -11.23    3.99   88.63  2.000 -1.000 0 2 0 2  0.943  0.943 287.22    0.00     0.00    0.00   2   90.00     0    0    0   100   0.0  1   1    8    0   0.000    0.000    0.000  1
  5   1    1  1 0 1     4  16    77  256  256     0.00000   1.36337 1.65616e-004    79   137  -2.57   1.48  -0.11  -11.26    3.94   87.63  2.000 -1.000 0 2 0 2  0.943  0.943 287.22    0.00     0.00    0.00   2   90.00     0    0    0   100   0.0  1   1    8    0   0.000    0.000    0.000  1
  6   1    1  1 0 1     5  16    77  256  256     0.00000   1.36337 1.65616e-004    85   148  -2.57   1.48  -0.11  -11.28    3.90   86.63  2.000 -1.000 0 2 0 2  0.943  0.943 287.22    0.00     0.00    0.00   2   90.00     0    0    0   100   0.0  1   1    8    0   0.000    0.000    0.000  1
  7   1    1  1 0 1     6  16    77  256  256     0.00000   1.36337 1.65616e-004    89   155  -2.57   1.48  -0.11  -11.31    3.85   85.63  2.000 -1.000 0 2 0 2  0.943  0.943 287.22    0.00     0.00    0.00   2   90.00     0    0    0   100   0.0  1   1    8    0   0.000    0.000    0.000  1
  8   1    1  1 0 1     7  16    77  256  256     0.00000   1.36337 1.65616e-004    97   168  -2.57   1.48  -0.11  -11.33    3.81   84.63  2.000 -1.000 0 2 0 2  0.943  0.943 287.22    0.00     0.00    0.00   2   90.00     0    0    0   100   0.0  1   1    8    0   0.000    0.000    0.000  1
  9   1    1  1 0 1     8  16    77  256  256     0.00000   1.36337 1.65616e-004   108   187  -2.57   1.48  -0.11  -11.36    3.77   83.63  2.000 -1.000 0 2 0 2  0.943  0.943 287.22    0.00     0.00    0.00   2   90.00     0    0    0   100   0.0  1   1    8    0   0.000    0.000    0.000  1
 10   1    1  1 0 1     9  16    77  256  256     0.00000   1.36337 1.65616e-004   107   186  -2.57   1.48  -0.11  -11.39    3.72   82.63  2.000 -1.000 0 2 0 2  0.943  0.943 287.22    0.00     0.00    0.00   2   90.00     0    0    0   100   0.0  1   1    8    0   0.000    0.000    0.000  1
 11   1    1  1 0 1    10  16    77  256  256     0.00000   1.36337 1.65616e-004   107   185  -2.57   1.48  -0.11  -11.41    3.68   81.63  2.000 -1.000 0 2 0 2  0.943  0.943 287.22    0.00     0.00    0.00   2   90.00     0    0    0   100   0.0  1   1    8    0   0.000    0.000    0.000  1
 12   1    1  1 0 1    11  16    77  256  256     0.00000   1.36337 1.65616e-004   104   181  -2.57   1.48  -0.11  -11.44    3.63   80.64  2.000 -1.000 0 2 0 2  0.943  0.943 287.22    0.00     0.00    0.00   2   90.00     0    0    0   100   0.0  1   1    8    0   0.000    0.000    0.000  1
 13   1    1  1 0 1    12  16    77  256  256     0.00000   1.36337 1.65616e-004   116   202  -2.57   1.48  -0.11  -11.46    3.59   79.64  2.000 -1.000 0 2 0 2  0.943  0.943 287.22    0.00     0.00    0.00   2   90.00     0    0    0   100   0.0  1   1    8    0   0.000    0.000    0.000  1
 14   1    1  1 0 1    13  16    77  256  256     0.00000   1.36337 1.65616e-004   103   179  -2.57   1.48  -0.11  -11.49    3.54   78.64  2.000 -1.000 0 2 0 2  0.943  0.943 287.22    0.00     0.00    0.00   2   90.00     0    0    0   100   0.0  1   1    8    0   0.000    0.000    0.000  1
 15   1    1  1 0 1    14  16    77  256  256     0.00000   1.36337 1.65616e-004   111   194  -2.57   1.48  -0.11  -11.52    3.50   77.64  2.000 -1.000 0 2 0 2  0.943  0.943 287.22    0.00     0.00    0.00   2   90.00     0    0    0   100   0.0  1   1    8    0   0.000    0.000    0.000  1
 16   1    1  1 0 1    15  16    77  256  256     0.00000   1.36337 1.65616e-004   124   215  -2.57   1.48  -0.11  -11.54    3.45   76.64  2.000 -1.000 0 2 0 2  0.943  0.943 287.22    0.00     0.00    0.00   2   90.00     0    0    0   100   0.0  1   1    8    0   0.000    0.000    0.000  1
 17   1    1  1 0 1    16  16    77  256  256     0.00000   1.36337 1.65616e-004   133   231  -2.57   1.48  -0.11  -11.57    3.41   75.64  2.000 -1.000 0 2 0 2  0.943  0.943 287.22    0.00     0.00    0.00   2   90.00     0    0    0   100   0.0  1   1    8    0   0.000    0.000    0.000  1
 18   1    1  1 0 1    17  16    77  256  256     0.00000   1.36337 1.65616e-004   138   239  -2.57   1.48  -0.11  -11.59    3.36   74.64  2.000 -1.000 0 2 0 2  0.943  0.943 287.22    0.00     0.00    0.00   2   90.00     0    0    0   100   0.0  1   1    8    0   0.000    0.000    0.000  1
 19   1    1  1 0 1    18  16    77  256  256     0.00000   1.36337 1.65616e-004   140   243  -2.57   1.48  -0.11  -11.62    3.32   73.65  2.000 -1.000 0 2 0 2  0.943  0.943 287.22    0.00     0.00    0.00   2   90.00     0    0    0   100   0.0  1   1    8    0   0.000    0.000    0.000  1
 20   1    1  1 0 1    19  16    77  256  256     0.00000   1.36337 1.65616e-004   151   263  -2.57   1.48  -0.11  -11.65    3.27   72.65  2.000 -1.000 0 2 0 2  0.943  0.943 287.22    0.00     0.00    0.00   2   90.00     0    0    0   100   0.0  1   1    8    0   0.000    0.000    0.000  1
 21   1    1  1 0 1    20  16    77  256  256     0.00000   1.36337 1.65616e-004   161   280  -2.57   1.48  -0.11  -11.67    3.23   71.65  2.000 -1.000 0 2 0 2  0.943  0.943 287.22    0.00     0.00    0.00   2   90.00     0    0    0   100   0.0  1   1    8    0   0.000    0.000    0.000  1
 22   1    1  1 0 1    21  16    77  256  256     0.00000   1.36337 1.65616e-004   162   282  -2.57   1.48  -0.11  -11.70    3.18   70.65  2.000 -1.000 0 2 0 2  0.943  0.943 287.22    0.00     0.00    0.00   2   90.00     0    0    0   100   0.0  1   1    8    0   0.000    0.000    0.000  1
 23   1    1  1 0 1    22  16    77  256  256     0.00000   1.36337 1.65616e-004   155   270  -2.57   1.48  -0.11  -11.72    3.14   69.65  2.000 -1.000 0 2 0 2  0.943  0.943 287.22    0.00     0.00    0.00   2   90.00     0    0    0   100   0.0  1   1    8    0   0.000    0.000    0.000  1
 24   1    1  1 0 1    23  16    77  256  256     0.00000   1.36337 1.65616e-004   157   273  -2.57   1.48  -0.11  -11.75    3.09   68.65  2.000 -1.000 0 2 0 2  0.943  0.943 287.22    0.00     0.00    0.00   2   90.00     0    0    0   100   0.0  1   1    8    0   0.000    0.000    0.000  1
 25   1    1  1 0 1    24  16    77  256  256     0.00000   1.36337 1.65616e-004   255   443  -2.57   1.48  -0.11  -11.78    3.05   67.65  2.000 -1.000 0 2 0 2  0.943  0.943 287.22    0.00     0.00    0.00   2   90.00     0    0    0   100   0.0  1   1    8    0   0.000    0.000    0.000  1
 26   1    1  1 0 1    25  16    77  256  256     0.00000   1.36337 1.65616e-004   392   681  -2.57   1.48  -0.11  -11.80    3.00   66.65  2.000 -1.000 0 2 0 2  0.943  0.943 287.22    0.00     0.00    0.00   2   90.00     0    0    0   100   0.0  1   1    8    0   0.000    0.000    0.000  1
 27   1    1  1 0 1    26  16    77  256  256     0.00000   1.36337 1.65616e-004   488   848  -2.57   1.48  -0.11  -11.83    2.96   65.66  2.000 -1.000 0 2 0 2  0.943  0.943 287.22    0.00     0.00    0.00   2   90.00     0    0    0   100   0.0  1   1    8    0   0.000    0.000    0.000  1
 28   1    1  1 0 1    27  16    77  256  256     0.00000   1.36337 1.65616e-004   494   858  -2.57   1.48  -0.11  -11.85    2.91   64.66  2.000 -1.000 0 2 0 2  0.943  0.943 287.22    0.00     0.00    0.00   2   90.00     0    0    0   100   0.0  1   1    8    0   0.000    0.000    0.000  1
 29   1    1  1 0 1    28  16    77  256  256     0.00000   1.36337 1.65616e-004   496   862  -2.57   1.48  -0.11  -11.88    2.87   63.66  2.000 -1.000 0 2 0 2  0.943  0.943 287.22    0.00     0.00    0.00   2   90.00     0    0    0   100   0.0  1   1    8    0   0.000    0.000    0.000  1
 30   1    1  1 0 1    29  16    77  256  256     0.00000   1.36337 1.65616e-004   505   877  -2.57   1.48  -0.11  -11.91    2.82   62.66  2.000 -1.000 0 2 0 2  0.943  0.943 287.22    0.00     0.00    0.00   2   90.00     0    0    0   100   0.0  1   1    8    0   0.000    0.000    0.000  1
 31   1    1  1 0 1    30  16    77  256  256     0.00000   1.36337 1.65616e-004   546   950  -2.57   1.48  -0.11  -11.93    2.78   61.66  2.000 -1.000 0 2 0 2  0.943  0.943 287.22    0.00     0.00    0.00   2   90.00     0    0    0   100   0.0  1   1    8    0   0.000    0.000    0.000  1
 32   1    1  1 0 1    31  16    77  256  256     0.00000   1.36337 1.65616e-004   575  1000  -2.57   1.48  -0.11  -11.96    2.73   60.66  2.000 -1.000 0 2 0 2  0.943  0.943 287.22    0.00     0.00    0.00   2   90.00     0    0    0   100   0.0  1   1    8    0   0.000    0.000    0.000  1
 33   1    1  1 0 1    32  16    77  256  256     0.00000   1.36337 1.65616e-004   617  1072  -2.57   1.48  -0.11  -11.98    2.69   59.66  2.000 -1.000 0 2 0 2  0.943  0.943 287.22    0.00     0.00    0.00   2   90.00     0    0    0   100   0.0  1   1    8    0   0.000    0.000    0.000  1
 34   1    1  1 0 1    33  16    77  256  256     0.00000   1.36337 1.65616e-004   603  1049  -2.57   1.48  -0.11  -12.01    2.64   58.67  2.000 -1.000 0 2 0 2  0.943  0.943 287.22    0.00     0.00    0.00   2   90.00     0    0    0   100   0.0  1   1    8    0   0.000    0.000    0.000  1
 35   1    1  1 0 1    34  16    77  256  256     0.00000   1.36337 1.65616e-004   597  1038  -2.57   1.48  -0.11  -12.04    2.60   57.67  2.000 -1.000 0 2 0 2  0.943  0.943 287.22    0.00     0.00    0.00   2   90.00     0    0    0   100   0.0  1   1    8    0   0.000    0.000    0.000  1
 36   1    1  1 0 1    35  16    77  256  256     0.00000   1.36337 1.65616e-004   599  1041  -2.57   1.48  -0.11  -12.06    2.56   56.67  2.000 -1.000 0 2 0 2  0.943  0.943 287.22    0.00     0.00    0.00   2   90.00     0    0    0   100   0.0  1   1    8    0   0.000    0.000    0.000  1
 37   1    1  1 0 1    36  16    77  256  256     0.00000   1.36337 1.65616e-004   591  1027  -2.57   1.48  -0.11  -12.09    2.51   55.67  2.000 -1.000 0 2 0 2  0.943  0.943 287.22    0.00     0.00    0.00   2   90.00     0    0    0   100   0.0  1   1    8    0   0.000    0.000    0.000  1
 38   1    1  1 0 1    37  16    77  256  256     0.00000   1.36337 1.65616e-004   565   982  -2.57   1.48  -0.11  -12.11    2.47   54.67  2.000 -1.000 0 2 0 2  0.943  0.943 287.22    0.00     0.00    0.00   2   90.00     0    0    0   100   0.0  1   1    8    0   0.000    0.000    0.000  1
 39   1    1  1 0 1    38  16    77  256  256     0.00000   1.36337 1.65616e-004   567   986  -2.57   1.48  -0.11  -12.14    2.42   53.67  2.000 -1.000 0 2 0 2  0.943  0.943 287.22    0.00     0.00    0.00   2   90.00     0    0    0   100   0.0  1   1    8    0   0.000    0.000    0.000  1
 40   1    1  1 0 1    39  16    77  256  256     0.00000   1.36337 1.65616e-004   560   974  -2.57   1.48  -0.11  -12.17    2.38   52.67  2.000 -1.000 0 2 0 2  0.943  0.943 287.22    0.00     0.00    0.00   2   90.00     0    0    0   100   0.0  1   1    8    0   0.000    0.000    0.000  1
 41   1    1  1 0 1    40  16    77  256  256     0.00000   1.36337 1.65616e-004   578  1006  -2.57   1.48  -0.11  -12.19    2.33   51.67  2.000 -1.000 0 2 0 2  0.943  0.943 287.22    0.00     0.00    0.00   2   90.00     0    0    0   100   0.0  1   1    8    0   0.000    0.000    0.000  1
 42   1    1  1 0 1    41  16    77  256  256     0.00000   1.36337 1.65616e-004   611  1062  -2.57   1.48  -0.11  -12.22    2.29   50.68  2.000 -1.000 0 2 0 2  0.943  0.943 287.22    0.00     0.00    0.00   2   90.00     0    0    0   100   0.0  1   1    8    0   0.000    0.000    0.000  1
 43   1    1  1 0 1    42  16    77  256  256     0.00000   1.36337 1.65616e-004   611  1063  -2.57   1.48  -0.11  -12.24    2.24   49.68  2.000 -1.000 0 2 0 2  0.943  0.943 287.22    0.00     0.00    0.00   2   90.00     0    0    0   100   0.0  1   1    8    0   0.000    0.000    0.000  1
 44   1    1  1 0 1    43  16    77  256  256     0.00000   1.36337 1.65616e-004   626  1089  -2.57   1.48  -0.11  -12.27    2.20   48.68  2.000 -1.000 0 2 0 2  0.943  0.943 287.22    0.00     0.00    0.00   2   90.00     0    0    0   100   0.0  1   1    8    0   0.000    0.000    0.000  1
 45   1    1  1 0 1    44  16    77  256  256     0.00000   1.36337 1.65616e-004   651  1131  -2.57   1.48  -0.11  -12.29    2.15   47.68  2.000 -1.000 0 2 0 2  0.943  0.943 287.22    0.00     0.00    0.00   2   90.00     0    0    0   100   0.0  1   1    8    0   0.000    0.000    0.000  1
 46   1    1  1 0 1    45  16    77  256  256     0.00000   1.36337 1.65616e-004   716  1244  -2.57   1.48  -0.11  -12.32    2.11   46.68  2.000 -1.000 0 2 0 2  0.943  0.943 287.22    0.00     0.00    0.00   2   90.00     0    0    0   100   0.0  1   1    8    0   0.000    0.000    0.000  1
 47   1    1  1 0 1    46  16    77  256  256     0.00000   1.36337 1.65616e-004   727  1264  -2.57   1.48  -0.11  -12.35    2.06   45.68  2.000 -1.000 0 2 0 2  0.943  0.943 287.22    0.00     0.00    0.00   2   90.00     0    0    0   100   0.0  1   1    8    0   0.000    0.000    0.000  1
 48   1    1  1 0 1    47  16    77  256  256     0.00000   1.36337 1.65616e-004   679  1181  -2.57   1.48  -0.11  -12.37    2.02   44.68  2.000 -1.000 0 2 0 2  0.943  0.943 287.22    0.00     0.00    0.00   2   90.00     0    0    0   100   0.0  1   1    8    0   0.000    0.000    0.000  1
 49   1    1  1 0 1    48  16    77  256  256     0.00000   1.36337 1.65616e-004   643  1119  -2.57   1.48  -0.11  -12.40    1.97   43.69  2.000 -1.000 0 2 0 2  0.943  0.943 287.22    0.00     0.00    0.00   2   90.00     0    0    0   100   0.0  1   1    8    0   0.000    0.000    0.000  1
 50   1    1  1 0 1    49  16    77  256  256     0.00000   1.36337 1.65616e-004   678  1179  -2.57   1.48  -0.11  -12.42    1.93   42.69  2.000 -1.000 0 2 0 2  0.943  0.943 287.22    0.00     0.00    0.00   2   90.00     0    0    0   100   0.0  1   1    8    0   0.000    0.000    0.000  1
 51   1    1  1 0 1    50  16    77  256  256     0.00000   1.36337 1.65616e-004   715  1243  -2.57   1.48  -0.11  -12.45    1.88   41.69  2.000 -1.000 0 2 0 2  0.943  0.943 287.22    0.00     0.00    0.00   2   90.00     0    0    0   100   0.0  1   1    8    0   0.000    0.000    0.000  1
 52   1    1  1 0 1    51  16    77  256  256     0.00000   1.36337 1.65616e-004   790  1373  -2.57   1.48  -0.11  -12.48    1.84   40.69  2.000 -1.000 0 2 0 2  0.943  0.943 287.22    0.00     0.00    0.00   2   90.00     0    0    0   100   0.0  1   1    8    0   0.000    0.000    0.000  1
 53   1    1  1 0 1    52  16    77  256  256     0.00000   1.36337 1.65616e-004   833  1447  -2.57   1.48  -0.11  -12.50    1.79   39.69  2.000 -1.000 0 2 0 2  0.943  0.943 287.22    0.00     0.00    0.00   2   90.00     0    0    0   100   0.0  1   1    8    0   0.000    0.000    0.000  1
 54   1    1  1 0 1    53  16    77  256  256     0.00000   1.36337 1.65616e-004   852  1481  -2.57   1.48  -0.11  -12.53    1.75   38.69  2.000 -1.000 0 2 0 2  0.943  0.943 287.22    0.00     0.00    0.00   2   90.00     0    0    0   100   0.0  1   1    8    0   0.000    0.000    0.000  1
 55   1    1  1 0 1    54  16    77  256  256     0.00000   1.36337 1.65616e-004   862  1499  -2.57   1.48  -0.11  -12.55    1.70   37.69  2.000 -1.000 0 2 0 2  0.943  0.943 287.22    0.00     0.00    0.00   2   90.00     0    0    0   100   0.0  1   1    8    0   0.000    0.000    0.000  1
 56   1    1  1 0 1    55  16    77  256  256     0.00000   1.36337 1.65616e-004   879  1528  -2.57   1.48  -0.11  -12.58    1.66   36.69  2.000 -1.000 0 2 0 2  0.943  0.943 287.22    0.00     0.00    0.00   2   90.00     0    0    0   100   0.0  1   1    8    0   0.000    0.000    0.000  1
 57   1    1  1 0 1    56  16    77  256  256     0.00000   1.36337 1.65616e-004   893  1552  -2.57   1.48  -0.11  -12.61    1.61   35.70  2.000 -1.000 0 2 0 2  0.943  0.943 287.22    0.00     0.00    0.00   2   90.00     0    0    0   100   0.0  1   1    8    0   0.000    0.000    0.000  1
 58   1    1  1 0 1    57  16    77  256  256     0.00000   1.36337 1.65616e-004   895  1555  -2.57   1.48  -0.11  -12.63    1.57   34.70  2.000 -1.000 0 2 0 2  0.943  0.943 287.22    0.00     0.00    0.00   2   90.00     0    0    0   100   0.0  1   1    8    0   0.000    0.000    0.000  1
 59   1    1  1 0 1    58  16    77  256  256     0.00000   1.36337 1.65616e-004   898  1560  -2.57   1.48  -0.11  -12.66    1.52   33.70  2.000 -1.000 0 2 0 2  0.943  0.943 287.22    0.00     0.00    0.00   2   90.00     0    0    0   100   0.0  1   1    8    0   0.000    0.000    0.000  1
 60   1    1  1 0 1    59  16    77  256  256     0.00000   1.36337 1.65616e-004   915  1590  -2.57   1.48  -0.11  -12.68    1.48   32.70  2.000 -1.000 0 2 0 2  0.943  0.943 287.22    0.00     0.00    0.00   2   90.00     0    0    0   100   0.0  1   1    8    0   0.000    0.000    0.000  1
 61   1    1  1 0 1    60  16    77  256  256     0.00000   1.36337 1.65616e-004   918  1595  -2.57   1.48  -0.11  -12.71    1.44   31.70  2.000 -1.000 0 2 0 2  0.943  0.943 287.22    0.00     0.00    0.00   2   90.00     0    0    0   100   0.0  1   1    8    0   0.000    0.000    0.000  1
 62   1    1  1 0 1    61  16    77  256  256     0.00000   1.36337 1.65616e-004   917  1593  -2.57   1.48  -0.11  -12.74    1.39   30.70  2.000 -1.000 0 2 0 2  0.943  0.943 287.22    0.00     0.00    0.00   2   90.00     0    0    0   100   0.0  1   1    8    0   0.000    0.000    0.000  1
 63   1    1  1 0 1    62  16    77  256  256     0.00000   1.36337 1.65616e-004   912  1585  -2.57   1.48  -0.11  -12.76    1.35   29.70  2.000 -1.000 0 2 0 2  0.943  0.943 287.22    0.00     0.00    0.00   2   90.00     0    0    0   100   0.0  1   1    8    0   0.000    0.000    0.000  1
 64   1    1  1 0 1    63  16    77  256  256     0.00000   1.36337 1.65616e-004   909  1581  -2.57   1.48  -0.11  -12.79    1.30   28.71  2.000 -1.000 0 2 0 2  0.943  0.943 287.22    0.00     0.00    0.00   2   90.00     0    0    0   100   0.0  1   1    8    0   0.000    0.000    0.000  1
 65   1    1  1 0 1    64  16    77  256  256     0.00000   1.36337 1.65616e-004   915  1591  -2.57   1.48  -0.11  -12.81    1.26   27.71  2.000 -1.000 0 2 0 2  0.943  0.943 287.22    0.00     0.00    0.00   2   90.00     0    0    0   100   0.0  1   1    8    0   0.000    0.000    0.000  1
 66   1    1  1 0 1    65  16    77  256  256     0.00000   1.36337 1.65616e-004   923  1604  -2.57   1.48  -0.11  -12.84    1.21   26.71  2.000 -1.000 0 2 0 2  0.943  0.943 287.22    0.00     0.00    0.00   2   90.00     0    0    0   100   0.0  1   1    8    0   0.000    0.000    0.000  1
 67   1    1  1 0 1    66  16    77  256  256     0.00000   1.36337 1.65616e-004   917  1595  -2.57   1.48  -0.11  -12.87    1.17   25.71  2.000 -1.000 0 2 0 2  0.943  0.943 287.22    0.00     0.00    0.00   2   90.00     0    0    0   100   0.0  1   1    8    0   0.000    0.000    0.000  1
 68   1    1  1 0 1    67  16    77  256  256     0.00000   1.36337 1.65616e-004   937  1629  -2.57   1.48  -0.11  -12.89    1.12   24.71  2.000 -1.000 0 2 0 2  0.943  0.943 287.22    0.00     0.00    0.00   2   90.00     0    0    0   100   0.0  1   1    8    0   0.000    0.000    0.000  1
 69   1    1  1 0 1    68  16    77  256  256     0.00000   1.36337 1.65616e-004   957  1663  -2.57   1.48  -0.11  -12.92    1.08   23.71  2.000 -1.000 0 2 0 2  0.943  0.943 287.22    0.00     0.00    0.00   2   90.00     0    0    0   100   0.0  1   1    8    0   0.000    0.000    0.000  1
 70   1    1  1 0 1    69  16    77  256  256     0.00000   1.36337 1.65616e-004   960  1669  -2.57   1.48  -0.11  -12.94    1.03   22.71  2.000 -1.000 0 2 0 2  0.943  0.943 287.22    0.00     0.00    0.00   2   90.00     0    0    0   100   0.0  1   1    8    0   0.000    0.000    0.000  1
 71   1    1  1 0 1    70  16    77  256  256     0.00000   1.36337 1.65616e-004   946  1645  -2.57   1.48  -0.11  -12.97    0.99   21.72  2.000 -1.000 0 2 0 2  0.943  0.943 287.22    0.00     0.00    0.00   2   90.00     0    0    0   100   0.0  1   1    8    0   0.000    0.000    0.000  1
 72   1    1  1 0 1    71  16    77  256  256     0.00000   1.36337 1.65616e-004   951  1653  -2.57   1.48  -0.11  -13.00    0.94   20.72  2.000 -1.000 0 2 0 2  0.943  0.943 287.22    0.00     0.00    0.00   2   90.00     0    0    0   100   0.0  1   1    8    0   0.000    0.000    0.000  1
 73   1    1  1 0 1    72  16    77  256  256     0.00000   1.36337 1.65616e-004   931  1619  -2.57   1.48  -0.11  -13.02    0.90   19.72  2.000 -1.000 0 2 0 2  0.943  0.943 287.22    0.00     0.00    0.00   2   90.00     0    0    0   100   0.0  1   1    8    0   0.000    0.000    0.000  1
 74   1    1  1 0 1    73  16    77  256  256     0.00000   1.36337 1.65616e-004   926  1610  -2.57   1.48  -0.11  -13.05    0.85   18.72  2.000 -1.000 0 2 0 2  0.943  0.943 287.22    0.00     0.00    0.00   2   90.00     0    0    0   100   0.0  1   1    8    0   0.000    0.000    0.000  1
 75   1    1  1 0 1    74  16    77  256  256     0.00000   1.36337 1.65616e-004   918  1596  -2.57   1.48  -0.11  -13.07    0.81   17.72  2.000 -1.000 0 2 0 2  0.943  0.943 287.22    0.00     0.00    0.00   2   90.00     0    0    0   100   0.0  1   1    8    0   0.000    0.000    0.000  1
 76   1    1  1 0 1    75  16    77  256  256     0.00000   1.36337 1.65616e-004   921  1600  -2.57   1.48  -0.11  -13.10    0.76   16.72  2.000 -1.000 0 2 0 2  0.943  0.943 287.22    0.00     0.00    0.00   2   90.00     0    0    0   100   0.0  1   1    8    0   0.000    0.000    0.000  1
 77   1    1  1 0 1    76  16    77  256  256     0.00000   1.36337 1.65616e-004   973  1691  -2.57   1.48  -0.11  -13.13    0.72   15.72  2.000 -1.000 0 2 0 2  0.943  0.943 287.22    0.00     0.00    0.00   2   90.00     0    0    0   100   0.0  1   1    8    0   0.000    0.000    0.000  1
 78   1    1  1 0 1    77  16    77  256  256     0.00000   1.36337 1.65616e-004   979  1702  -2.57   1.48  -0.11  -13.15    0.67   14.72  2.000 -1.000 0 2 0 2  0.943  0.943 287.22    0.00     0.00    0.00   2   90.00     0    0    0   100   0.0  1   1    8    0   0.000    0.000    0.000  1
 79   1    1  1 0 1    78  16    77  256  256     0.00000   1.36337 1.65616e-004   993  1726  -2.57   1.48  -0.11  -13.18    0.63   13.73  2.000 -1.000 0 2 0 2  0.943  0.943 287.22    0.00     0.00    0.00   2   90.00     0    0    0   100   0.0  1   1    8    0   0.000    0.000    0.000  1
 80   1    1  1 0 1    79  16    77  256  256     0.00000   1.36337 1.65616e-004   982  1706  -2.57   1.48  -0.11  -13.20    0.58   12.73  2.000 -1.000 0 2 0 2  0.943  0.943 287.22    0.00     0.00    0.00   2   90.00     0    0    0   100   0.0  1   1    8    0   0.000    0.000    0.000  1
 81   1    1  1 0 1    80  16    77  256  256     0.00000   1.36337 1.65616e-004   987  1716  -2.57   1.48  -0.11  -13.23    0.54   11.73  2.000 -1.000 0 2 0 2  0.943  0.943 287.22    0.00     0.00    0.00   2   90.00     0    0    0   100   0.0  1   1    8    0   0.000    0.000    0.000  1
 82   1    1  1 0 1    81  16    77  256  256     0.00000   1.36337 1.65616e-004   970  1687  -2.57   1.48  -0.11  -13.25    0.49   10.73  2.000 -1.000 0 2 0 2  0.943  0.943 287.22    0.00     0.00    0.00   2   90.00     0    0    0   100   0.0  1   1    8    0   0.000    0.000    0.000  1
 83   1    1  1 0 1    82  16    77  256  256     0.00000   1.36337 1.65616e-004  1007  1750  -2.57   1.48  -0.11  -13.28    0.45    9.73  2.000 -1.000 0 2 0 2  0.943  0.943 287.22    0.00     0.00    0.00   2   90.00     0    0    0   100   0.0  1   1    8    0   0.000    0.000    0.000  1
 84   1    1  1 0 1    83  16    77  256  256     0.00000   1.36337 1.65616e-004  1033  1796  -2.57   1.48  -0.11  -13.31    0.40    8.73  2.000 -1.000 0 2 0 2  0.943  0.943 287.22    0.00     0.00    0.00   2   90.00     0    0    0   100   0.0  1   1    8    0   0.000    0.000    0.000  1
