# === DATA DESCRIPTION FILE ======================================================
#
# CAUTION - Investigational device.
# Limited by Federal Law to investigational use.
#
#
# CLINICAL TRYOUT             Research image export tool     V4.2
#
# === GENERAL INFORMATION ========================================================
#
.    Protocol name                      :   WIP 3D FLAIR Sag UMich SENSE
.    Series Type                        :   Image   MRSERIES
.    Acquisition nr                     :   4
.    Reconstruction nr                  :   1
.    Scan Duration [sec]                :   528
.    Max. number of cardiac phases      :   1
.    Max. number of echoes              :   1
.    Max. number of slices/locations    :   327
.    Max. number of dynamics            :   1
.    Max. number of mixes               :   1
.    Patient position                   :   Head First Supine
.    Preparation direction              :   Anterior-Posterior
.    Technique                          :   TIR
.    Scan resolution  (x, y)            :   216  220
.    Scan mode                          :   3D
.    Repetition time [ms]               :   8000.000  
.    FOV (ap,fh,rl) [mm]                :   240.000  200.000  179.850
.    Water Fat shift [pixels]           :   0.858
.    Angulation midslice(ap,fh,rl)[degr]:   -2.572  1.482  -0.113
.    Off Centre midslice(ap,fh,rl) [mm] :   -13.476  0.113  2.241
.    Flow compensation <0=no 1=yes> ?   :   1
.    Presaturation     <0=no 1=yes> ?   :   0
.    Phase encoding velocity [cm/sec]   :   0.000000  0.000000  0.000000
.    MTC               <0=no 1=yes> ?   :   0
.    SPIR              <0=no 1=yes> ?   :   1
.    EPI factor        <0,1=no EPI>     :   1
.    Dynamic scan      <0=no 1=yes> ?   :   0
.    Diffusion         <0=no 1=yes> ?   :   0
.    Diffusion echo time [ms]           :   0.0000
.    Max. number of diffusion values    :   1
.    Max. number of gradient orients    :   1
.    Number of label types   <0=no ASL> :   0
#
# === PIXEL VALUES =============================================================
#  PV = pixel value in REC file, FP = floating point value, DV = displayed value on console
#  RS = rescale slope,           RI = rescale intercept,    SS = scale slope
#  DV = PV * RS + RI             FP = DV / (RS * SS)
#
# === IMAGE INFORMATION DEFINITION =============================================
#  The rest of this file contains ONE line per image, this line contains the following information:
#
#  slice number                             (integer)
#  echo number                              (integer)
#  dynamic scan number                      (integer)
#  cardiac phase number                     (integer)
#  image_type_mr                            (integer)
#  scanning sequence                        (integer)
#  index in REC file (in images)            (integer)
#  image pixel size (in bits)               (integer)
#  scan percentage                          (integer)
#  recon resolution (x y)                   (2*integer)
#  rescale intercept                        (float)
#  rescale slope                            (float)
#  scale slope                              (float)
#  window center                            (integer)
#  window width                             (integer)
#  image angulation (ap,fh,rl in degrees )  (3*float)
#  image offcentre (ap,fh,rl in mm )        (3*float)
#  slice thickness (in mm )                 (float)
#  slice gap (in mm )                       (float)
#  image_display_orientation                (integer)
#  slice orientation ( TRA/SAG/COR )        (integer)
#  fmri_status_indication                   (integer)
#  image_type_ed_es  (end diast/end syst)   (integer)
#  pixel spacing (x,y) (in mm)              (2*float)
#  echo_time                                (float)
#  dyn_scan_begin_time                      (float)
#  trigger_time                             (float)
#  diffusion_b_factor                       (float)
#  number of averages                       (integer)
#  image_flip_angle (in degrees)            (float)
#  cardiac frequency   (bpm)                (integer)
#  minimum RR-interval (in ms)              (integer)
#  maximum RR-interval (in ms)              (integer)
#  TURBO factor  <0=no turbo>               (integer)
#  Inversion delay (in ms)                  (float)
#  diffusion b value number    (imagekey!)  (integer)
#  gradient orientation number (imagekey!)  (integer)
#  contrast type                            (string)
#  diffusion anisotropy type                (string)
#  diffusion (ap, fh, rl)                   (3*float)
#  label type (ASL)            (imagekey!)  (integer)
#
# === IMAGE INFORMATION ==========================================================
#  sl ec  dyn ph ty    idx pix scan% rec size                (re)scale              window        angulation              offcentre        thick   gap   info      spacing     echo     dtime   ttime    diff  avg  flip    freq   RR-int  turbo delay b grad cont anis         diffusion       L.ty

  1   1    1  1 0 0     0  16    79  576  576     0.00000   6.46227 1.28221e-003    11    19  -2.57   1.48  -0.11  -11.15    4.13   91.77  1.100 -0.550 0 2 0 2  0.417  0.417 330.91    0.00     0.00    0.00   1   90.00     0    0    0   110 2400.0  1   1    8    0   0.000    0.000    0.000  1
  2   1    1  1 0 0     1  16    79  576  576     0.00000   6.46227 1.28221e-003    30    52  -2.57   1.48  -0.11  -11.16    4.11   91.22  1.100 -0.550 0 2 0 2  0.417  0.417 330.91    0.00     0.00    0.00   1   90.00     0    0    0   110 2400.0  1   1    8    0   0.000    0.000    0.000  1
  3   1    1  1 0 0     2  16    79  576  576     0.00000   6.46227 1.28221e-003    33    58  -2.57   1.48  -0.11  -11.18    4.08   90.67  1.100 -0.550 0 2 0 2  0.417  0.417 330.91    0.00     0.00    0.00   1   90.00     0    0    0   110 2400.0  1   1    8    0   0.000    0.000    0.000  1
  4   1    1  1 0 0     3  16    79  576  576     0.00000   6.46227 1.28221e-003    34    59  -2.57   1.48  -0.11  -11.19    4.06   90.12  1.100 -0.550 0 2 0 2  0.417  0.417 330.91    0.00     0.00    0.00   1   90.00     0    0    0   110 2400.0  1   1    8    0   0.000    0.000    0.000  1
  5   1    1  1 0 0     4  16    79  576  576     0.00000   6.46227 1.28221e-003    33    57  -2.57   1.48  -0.11  -11.21    4.03   89.57  1.100 -0.550 0 2 0 2  0.417  0.417 330.91    0.00     0.00    0.00   1   90.00     0    0    0   110 2400.0  1   1    8    0   0.000    0.000    0.000  1
  6   1    1  1 0 0     5  16    79  576  576     0.00000   6.46227 1.28221e-003    33    58  -2.57   1.48  -0.11  -11.22    4.01   89.02  1.100 -0.550 0 2 0 2  0.417  0.417 330.91    0.00     0.00    0.00   1   90.00     0    0    0   110 2400.0  1   1    8    0   0.000    0.000    0.000  1
  7   1    1  1 0 0     6  16    79  576  576     0.00000   6.46227 1.28221e-003    32    55  -2.57   1.48  -0.11  -11.23    3.98   88.48  1.100 -0.550 0 2 0 2  0.417  0.417 330.91    0.00     0.00    0.00   1   90.00     0    0    0   110 2400.0  1   1    8    0   0.000    0.000    0.000  1
  8   1    1  1 0 0     7  16    79  576  576     0.00000   6.46227 1.28221e-003    32    56  -2.57   1.48  -0.11  -11.25    3.96   87.93  1.100 -0.550 0 2 0 2  0.417  0.417 330.91    0.00     0.00    0.00   1   90.00     0    0    0   110 2400.0  1   1    8    0   0.000    0.000    0.000  1
  9   1    1  1 0 0     8  16    79  576  576     0.00000   6.46227 1.28221e-003    36    62  -2.57   1.48  -0.11  -11.26    3.93   87.38  1.100 -0.550 0 2 0 2  0.417  0.417 330.91    0.00     0.00    0.00   1   90.00     0    0    0   110 2400.0  1   1    8    0   0.000    0.000    0.000  1
 10   1    1  1 0 0     9  16    79  576  576     0.00000   6.46227 1.28221e-003    38    66  -2.57   1.48  -0.11  -11.28    3.91   86.83  1.100 -0.550 0 2 0 2  0.417  0.417 330.91    0.00     0.00    0.00   1   90.00     0    0    0   110 2400.0  1   1    8    0   0.000    0.000    0.000  1
 11   1    1  1 0 0    10  16    79  576  576     0.00000   6.46227 1.28221e-003    42    72  -2.57   1.48  -0.11  -11.29    3.88   86.28  1.100 -0.550 0 2 0 2  0.417  0.417 330.91    0.00     0.00    0.00   1   90.00     0    0    0   110 2400.0  1   1    8    0   0.000    0.000    0.000  1
 12   1    1  1 0 0    11  16    79  576  576     0.00000   6.46227 1.28221e-003    43    75  -2.57   1.48  -0.11  -11.31    3.86   85.73  1.100 -0.550 0 2 0 2  0.417  0.417 330.91    0.00     0.00    0.00   1   90.00     0    0    0   110 2400.0  1   1    8    0   0.000    0.000    0.000  1
 13   1    1  1 0 0    12  16    79  576  576     0.00000   6.46227 1.28221e-003    53    92  -2.57   1.48  -0.11  -11.32    3.83   85.18  1.100 -0.550 0 2 0 2  0.417  0.417 330.91    0.00     0.00    0.00   1   90.00     0    0    0   110 2400.0  1   1    8    0   0.000    0.000    0.000  1
 14   1    1  1 0 0    13  16    79  576  576     0.00000   6.46227 1.28221e-003   120   209  -2.57   1.48  -0.11  -11.33    3.81   84.63  1.100 -0.550 0 2 0 2  0.417  0.417 330.91    0.00     0.00    0.00   1   90.00     0    0    0   110 2400.0  1   1    8    0   0.000    0.000    0.000  1
 15   1    1  1 0 0    14  16    79  576  576     0.00000   6.46227 1.28221e-003   196   341  -2.57   1.48  -0.11  -11.35    3.79   84.08  1.100 -0.550 0 2 0 2  0.417  0.417 330.91    0.00     0.00    0.00   1   90.00     0    0    0   110 2400.0  1   1    8    0   0.000    0.000    0.000  1
 16   1    1  1 0 0    15  16    79  576  576     0.00000   6.46227 1.28221e-003   227   395  -2.57   1.48  -0.11  -11.36    3.76   83.53  1.100 -0.550 0 2 0 2  0.417  0.417 330.91    0.00     0.00    0.00   1   90.00     0    0    0   110 2400.0  1   1    8    0   0.000    0.000    0.000  1
 17   1    1  1 0 0    16  16    79  576  576     0.00000   6.46227 1.28221e-003   245   426  -2.57   1.48  -0.11  -11.38    3.74   82.98  1.100 -0.550 0 2 0 2  0.417  0.417 330.91    0.00     0.00    0.00   1   90.00     0    0    0   110 2400.0  1   1    8    0   0.000    0.000    0.000  1
 18   1    1  1 0 0    17  16    79  576  576     0.00000   6.46227 1.28221e-003   264   459  -2.57   1.48  -0.11  -11.39    3.71   82.43  1.100 -0.550 0 2 0 2  0.417  0.417 330.91    0.00     0.00    0.00   1   90.00     0    0    0   110 2400.0  1   1    8    0   0.000    0.000    0.000  1
 19   1    1  1 0 0    18  16    79  576  576     0.00000   6.46227 1.28221e-003   281   489  -2.57   1.48  -0.11  -11.41    3.69   81.88  1.100 -0.550 0 2 0 2  0.417  0.417 330.91    0.00     0.00    0.00   1   90.00     0    0    0   110 2400.0  1   1    8    0   0.000    0.000    0.000  1
 20   1    1  1 0 0    19  16    79  576  576     0.00000   6.46227 1.28221e-003   304   528  -2.57   1.48  -0.11  -11.42    3.66   81.34  1.100 -0.550 0 2 0 2  0.417  0.417 330.91    0.00     0.00    0.00   1   90.00     0    0    0   110 2400.0  1   1    8    0   0.000    0.000    0.000  1
 21   1    1  1 0 0    20  16    79  576  576     0.00000   6.46227 1.28221e-003   314   546  -2.57   1.48  -0.11  -11.43    3.64   80.79  1.100 -0.550 0 2 0 2  0.417  0.417 330.91    0.00     0.00    0.00   1   90.00     0    0    0   110 2400.0  1   1    8    0   0.000    0.000    0.000  1
 22   1    1  1 0 0    21  16    79  576  576     0.00000   6.46227 1.28221e-003   300   521  -2.57   1.48  -0.11  -11.45    3.61   80.24  1.100 -0.550 0 2 0 2  0.417  0.417 330.91    0.00     0.00    0.00   1   90.00     0    0    0   110 2400.0  1   1    8    0   0.000    0.000    0.000  1
 23   1    1  1 0 0    22  16    79  576  576     0.00000   6.46227 1.28221e-003   274   477  -2.57   1.48  -0.11  -11.46    3.59   79.69  1.100 -0.550 0 2 0 2  0.417  0.417 330.91    0.00     0.00    0.00   1   90.00     0    0    0   110 2400.0  1   1    8    0   0.000    0.000    0.000  1
 24   1    1  1 0 0    23  16    79  576  576     0.00000   6.46227 1.28221e-003   282   490  -2.57   1.48  -0.11  -11.48    3.56   79.14  1.100 -0.550 0 2 0 2  0.417  0.417 330.91    0.00     0.00    0.00   1   90.00     0    0    0   110 2400.0  1   1    8    0   0.000    0.000    0.000  1
 25   1    1  1 0 0    24  16    79  576  576     0.00000   6.46227 1.28221e-003   294   511  -2.57   1.48  -0.11  -11.49    3.54   78.59  1.100 -0.550 0 2 0 2  0.417  0.417 330.91    0.00     0.00    0.00   1   90.00     0    0    0   110 2400.0  1   1    8    0   0.000    0.000    0.000  1
 26   1    1  1 0 0    25  16    79  576  576     0.00000   6.46227 1.28221e-003   307   534  -2.57   1.48  -0.11  -11.51    3.51   78.04  1.100 -0.550 0 2 0 2  0.417  0.417 330.91    0.00     0.00    0.00   1   90.00     0    0    0   110 2400.0  1   1    8    0   0.000    0.000    0.000  1
 27   1    1  1 0 0    26  16    79  576  576     0.00000   6.46227 1.28221e-003   322   560  -2.57   1.48  -0.11  -11.52    3.49   77.49  1.100 -0.550 0 2 0 2  0.417  0.417 330.91    0.00     0.00    0.00   1   90.00     0    0    0   110 2400.0  1   1    8    0   0.000    0.000    0.000  1
 28   1    1  1 0 0    27  16    79  576  576     0.00000   6.46227 1.28221e-003   334   580  -2.57   1.48  -0.11  -11.53    3.46   76.94  1.100 -0.550 0 2 0 2  0.417  0.417 330.91    0.00     0.00    0.00   1   90.00     0    0    0   110 2400.0  1   1    8    0   0.000    0.000    0.000  1
 29   1    1  1 0 0    28  16    79  576  576     0.00000   6.46227 1.28221e-003   374   650  -2.57   1.48  -0.11  -11.55    3.44   76.39  1.100 -0.550 0 2 0 2  0.417  0.417 330.91    0.00     0.00    0.00   1   90.00     0    0    0   110 2400.0  1   1    8    0   0.000    0.000    0.000  1
 30   1    1  1 0 0    29  16    79  576  576     0.00000   6.46227 1.28221e-003   418   727  -2.57   1.48  -0.11  -11.56    3.42   75.84  1.100 -0.550 0 2 0 2  0.417  0.417 330.91    0.00     0.00    0.00   1   90.00     0    0    0   110 2400.0  1   1    8    0   0.000    0.000    0.000  1
 31   1    1  1 0 0    30  16    79  576  576     0.00000   6.46227 1.28221e-003   477   828  -2.57   1.48  -0.11  -11.58    3.39   75.29  1.100 -0.550 0 2 0 2  0.417  0.417 330.91    0.00     0.00    0.00   1   90.00     0    0    0   110 2400.0  1   1    8    0   0.000    0.000    0.000  1
 32   1    1  1 0 0    31  16    79  576  576     0.00000   6.46227 1.28221e-003   495   860  -2.57   1.48  -0.11  -11.59    3.37   74.74  1.100 -0.550 0 2 0 2  0.417  0.417 330.91    0.00     0.00    0.00   1   90.00     0    0    0   110 2400.0  1   1    8    0   0.000    0.000    0.000  1
 33   1    1  1 0 0    32  16    79  576  576     0.00000   6.46227 1.28221e-003   483   840  -2.57   1.48  -0.11  -11.61    3.34   74.19  1.100 -0.550 0 2 0 2  0.417  0.417 330.91    0.00     0.00    0.00   1   90.00     0    0    0   110 2400.0  1   1    8    0   0.000    0.000    0.000  1
 34   1    1  1 0 0    33  16    79  576  576     0.00000   6.46227 1.28221e-003   486   845  -2.57   1.48  -0.11  -11.62    3.32   73.65  1.100 -0.550 0 2 0 2  0.417  0.417 330.91    0.00     0.00    0.00   1   90.00     0    0    0   110 2400.0  1   1    8    0   0.000    0.000    0.000  1
 35   1    1  1 0 0    34  16    79  576  576     0.00000   6.46227 1.28221e-003   500   870  -2.57   1.48  -0.11  -11.63    3.29   73.10  1.100 -0.550 0 2 0 2  0.417  0.417 330.91    0.00     0.00    0.00   1   90.00     0    0    0   110 2400.0  1   1    8    0   0.000    0.000    0.000  1
 36   1    1  1 0 0    35  16    79  576  576     0.00000   6.46227 1.28221e-003   535   930  -2.57   1.48  -0.11  -11.65    3.27   72.55  1.100 -0.550 0 2 0 2  0.417  0.417 330.91    0.00     0.00    0.00   1   90.00     0    0    0   110 2400.0  1   1    8    0   0.000    0.000    0.000  1
 37   1    1  1 0 0    36  16    79  576  576     0.00000   6.46227 1.28221e-003   580  1008  -2.57   1.48  -0.11  -11.66    3.24   72.00  1.100 -0.550 0 2 0 2  0.417  0.417 330.91    0.00     0.00    0.00   1   90.00     0    0    0   110 2400.0  1   1    8    0   0.000    0.000    0.000  1
 38   1    1  1 0 0    37  16    79  576  576     0.00000   6.46227 1.28221e-003   611  1062  -2.57   1.48  -0.11  -11.68    3.22   71.45  1.100 -0.550 0 2 0 2  0.417  0.417 330.91    0.00     0.00    0.00   1   90.00     0    0    0   110 2400.0  1   1    8    0   0.000    0.000    0.000  1
 39   1    1  1 0 0    38  16    79  576  576     0.00000   6.46227 1.28221e-003   612  1063  -2.57   1.48  -0.11  -11.69    3.19   70.90  1.100 -0.550 0 2 0 2  0.417  0.417 330.91    0.00     0.00    0.00   1   90.00     0    0    0   110 2400.0  1   1    8    0   0.000    0.000    0.000  1
 40   1    1  1 0 0    39  16    79  576  576     0.00000   6.46227 1.28221e-003   597  1037  -2.57   1.48  -0.11  -11.71    3.17   70.35  1.100 -0.550 0 2 0 2  0.417  0.417 330.91    0.00     0.00    0.00   1   90.00     0    0    0   110 2400.0  1   1    8    0   0.000    0.000    0.000  1
 41   1    1  1 0 0    40  16    79  576  576     0.00000   6.46227 1.28221e-003   605  1052  -2.57   1.48  -0.11  -11.72    3.14   69.80  1.100 -0.550 0 2 0 2  0.417  0.417 330.91    0.00     0.00    0.00   1   90.00     0    0    0   110 2400.0  1   1    8    0   0.000    0.000    0.000  1
 42   1    1  1 0 0    41  16    79  576  576     0.00000   6.46227 1.28221e-003   595  1034  -2.57   1.48  -0.11  -11.73    3.12   69.25  1.100 -0.550 0 2 0 2  0.417  0.417 330.91    0.00     0.00    0.00   1   90.00     0    0    0   110 2400.0  1   1    8    0   0.000    0.000    0.000  1
 43   1    1  1 0 0    42  16    79  576  576     0.00000   6.46227 1.28221e-003   575   999  -2.57   1.48  -0.11  -11.75    3.10   68.70  1.100 -0.550 0 2 0 2  0.417  0.417 330.91    0.00     0.00    0.00   1   90.00     0    0    0   110 2400.0  1   1    8    0   0.000    0.000    0.000  1
 44   1    1  1 0 0    43  16    79  576  576     0.00000   6.46227 1.28221e-003   605  1051  -2.57   1.48  -0.11  -11.76    3.07   68.15  1.100 -0.550 0 2 0 2  0.417  0.417 330.91    0.00     0.00    0.00   1   90.00     0    0    0   110 2400.0  1   1    8    0   0.000    0.000    0.000  1
 45   1    1  1 0 0    44  16    79  576  576     0.00000   6.46227 1.28221e-003   640  1113  -2.57   1.48  -0.11  -11.78    3.05   67.60  1.100 -0.550 0 2 0 2  0.417  0.417 330.91    0.00     0.00    0.00   1   90.00     0    0    0   110 2400.0  1   1    8    0   0.000    0.000    0.000  1
 46   1    1  1 0 0    45  16    79  576  576     0.00000   6.46227 1.28221e-003   656  1140  -2.57   1.48  -0.11  -11.79    3.02   67.05  1.100 -0.550 0 2 0 2  0.417  0.417 330.91    0.00     0.00    0.00   1   90.00     0    0    0   110 2400.0  1   1    8    0   0.000    0.000    0.000  1
 47   1    1  1 0 0    46  16    79  576  576     0.00000   6.46227 1.28221e-003   660  1148  -2.57   1.48  -0.11  -11.81    3.00   66.50  1.100 -0.550 0 2 0 2  0.417  0.417 330.91    0.00     0.00    0.00   1   90.00     0    0    0   110 2400.0  1   1    8    0   0.000    0.000    0.000  1
 48   1    1  1 0 0    47  16    79  576  576     0.00000   6.46227 1.28221e-003   663  1152  -2.57   1.48  -0.11  -11.82    2.97   65.96  1.100 -0.550 0 2 0 2  0.417  0.417 330.91    0.00     0.00    0.00   1   90.00     0    0    0   110 2400.0  1   1    8    0   0.000    0.000    0.000  1
 49   1    1  1 0 0    48  16    79  576  576     0.00000   6.46227 1.28221e-003   683  1187  -2.57   1.48  -0.11  -11.83    2.95   65.41  1.100 -0.550 0 2 0 2  0.417  0.417 330.91    0.00     0.00    0.00   1   90.00     0    0    0   110 2400.0  1   1    8    0   0.000    0.000    0.000  1
 50   1    1  1 0 0    49  16    79  576  576     0.00000   6.46227 1.28221e-003   684  1190  -2.57   1.48  -0.11  -11.85    2.92   64.86  1.100 -0.550 0 2 0 2  0.417  0.417 330.91    0.00     0.00    0.00   1   90.00     0    0    0   110 2400.0  1   1    8    0   0.000    0.000    0.000  1
 51   1    1  1 0 0    50  16    79  576  576     0.00000   6.46227 1.28221e-003   695  1209  -2.57   1.48  -0.11  -11.86    2.90   64.31  1.100 -0.550 0 2 0 2  0.417  0.417 330.91    0.00     0.00    0.00   1   90.00     0    0    0   110 2400.0  1   1    8    0   0.000    0.000    0.000  1
 52   1    1  1 0 0    51  16    79  576  576     0.00000   6.46227 1.28221e-003   700  1216  -2.57   1.48  -0.11  -11.88    2.87   63.76  1.100 -0.550 0 2 0 2  0.417  0.417 330.91    0.00     0.00    0.00   1   90.00     0    0    0   110 2400.0  1   1    8    0   0.000    0.000    0.000  1
 53   1    1  1 0 0    52  16    79  576  576     0.00000   6.46227 1.28221e-003   712  1237  -2.57   1.48  -0.11  -11.89    2.85   63.21  1.100 -0.550 0 2 0 2  0.417  0.417 330.91    0.00     0.00    0.00   1   90.00     0    0    0   110 2400.0  1   1    8    0   0.000    0.000    0.000  1
 54   1    1  1 0 0    53  16    79  576  576     0.00000   6.46227 1.28221e-003   738  1284  -2.57   1.48  -0.11  -11.91    2.82   62.66  1.100 -0.550 0 2 0 2  0.417  0.417 330.91    0.00     0.00    0.00   1   90.00     0    0    0   110 2400.0  1   1    8    0   0.000    0.000    0.000  1
 55   1    1  1 0 0    54  16    79  576  576     0.00000   6.46227 1.28221e-003   758  1317  -2.57   1.48  -0.11  -11.92    2.80   62.11  1.100 -0.550 0 2 0 2  0.417  0.417 330.91    0.00     0.00    0.00   1   90.00     0    0    0   110 2400.0  1   1    8    0   0.000    0.000    0.000  1
 56   1    1  1 0 0    55  16    79  576  576     0.00000   6.46227 1.28221e-003   786  1367  -2.57   1.48  -0.11  -11.93    2.77   61.56  1.100 -0.550 0 2 0 2  0.417  0.417 330.91    0.00     0.00    0.00   1   90.00     0    0    0   110 2400.0  1   1    8    0   0.000    0.000    0.000  1
 57   1    1  1 0 0    56  16    79  576  576     0.00000   6.46227 1.28221e-003   788  1370  -2.57   1.48  -0.11  -11.95    2.75   61.01  1.100 -0.550 0 2 0 2  0.417  0.417 330.91    0.00     0.00    0.00   1   90.00     0    0    0   110 2400.0  1   1    8    0   0.000    0.000    0.000  1
 58   1    1  1 0 0    57  16    79  576  576     0.00000   6.46227 1.28221e-003   791  1375  -2.57   1.48  -0.11  -11.96    2.73   60.46  1.100 -0.550 0 2 0 2  0.417  0.417 330.91    0.00     0.00    0.00   1   90.00     0    0    0   110 2400.0  1   1    8    0   0.000    0.000    0.000  1
 59   1    1  1 0 0    58  16    79  576  576     0.00000   6.46227 1.28221e-003   830  1442  -2.57   1.48  -0.11  -11.98    2.70   59.91  1.100 -0.550 0 2 0 2  0.417  0.417 330.91    0.00     0.00    0.00   1   90.00     0    0    0   110 2400.0  1   1    8    0   0.000    0.000    0.000  1
 60   1    1  1 0 0    59  16    79  576  576     0.00000   6.46227 1.28221e-003   838  1456  -2.57   1.48  -0.11  -11.99    2.68   59.36  1.100 -0.550 0 2 0 2  0.417  0.417 330.91    0.00     0.00    0.00   1   90.00     0    0    0   110 2400.0  1   1    8    0   0.000    0.000    0.000  1
 61   1    1  1 0 0    60  16    79  576  576     0.00000   6.46227 1.28221e-003   850  1477  -2.57   1.48  -0.11  -12.01    2.65   58.82  1.100 -0.550 0 2 0 2  0.417  0.417 330.91    0.00     0.00    0.00   1   90.00     0    0    0   110 2400.0  1   1    8    0   0.000    0.000    0.000  1
 62   1    1  1 0 0    61  16    79  576  576     0.00000   6.46227 1.28221e-003   866  1506  -2.57   1.48  -0.11  -12.02    2.63   58.27  1.100 -0.550 0 2 0 2  0.417  0.417 330.91    0.00     0.00    0.00   1   90.00     0    0    0   110 2400.0  1   1    8    0   0.000    0.000    0.000  1
 63   1    1  1 0 0    62  16    79  576  576     0.00000   6.46227 1.28221e-003   910  1583  -2.57   1.48  -0.11  -12.03    2.60   57.72  1.100 -0.550 0 2 0 2  0.417  0.417 330.91    0.00     0.00    0.00   1   90.00     0    0    0   110 2400.0  1   1    8    0   0.000    0.000    0.000  1
 64   1    1  1 0 0    63  16    79  576  576     0.00000   6.46227 1.28221e-003   934  1623  -2.57   1.48  -0.11  -12.05    2.58   57.17  1.100 -0.550 0 2 0 2  0.417  0.417 330.91    0.00     0.00    0.00   1   90.00     0    0    0   110 2400.0  1   1    8    0   0.000    0.000    0.000  1
 65   1    1  1 0 0    64  16    79  576  576     0.00000   6.46227 1.28221e-003   938  1631  -2.57   1.48  -0.11  -12.06    2.55   56.62  1.100 -0.550 0 2 0 2  0.417  0.417 330.91    0.00     0.00    0.00   1   90.00     0    0    0   110 2400.0  1   1    8    0   0.000    0.000    0.000  1
 66   1    1  1 0 0    65  16    79  576  576     0.00000   6.46227 1.28221e-003   973  1691  -2.57   1.48  -0.11  -12.08    2.53   56.07  1.100 -0.550 0 2 0 2  0.417  0.417 330.91    0.00     0.00    0.00   1   90.00     0    0    0   110 2400.0  1   1    8    0   0.000    0.000    0.000  1
 67   1    1  1 0 0    66  16    79  576  576     0.00000   6.46227 1.28221e-003   973  1691  -2.57   1.48  -0.11  -12.09    2.50   55.52  1.100 -0.550 0 2 0 2  0.417  0.417 330.91    0.00     0.00    0.00   1   90.00     0    0    0   110 2400.0  1   1    8    0   0.000    0.000    0.000  1
 68   1    1  1 0 0    67  16    79  576  576     0.00000   6.46227 1.28221e-003   967  1681  -2.57   1.48  -0.11  -12.11    2.48   54.97  1.100 -0.550 0 2 0 2  0.417  0.417 330.91    0.00     0.00    0.00   1   90.00     0    0    0   110 2400.0  1   1    8    0   0.000    0.000    0.000  1
 69   1    1  1 0 0    68  16    79  576  576     0.00000   6.46227 1.28221e-003  1007  1751  -2.57   1.48  -0.11  -12.12    2.45   54.42  1.100 -0.550 0 2 0 2  0.417  0.417 330.91    0.00     0.00    0.00   1   90.00     0    0    0   110 2400.0  1   1    8    0   0.000    0.000    0.000  1
 70   1    1  1 0 0    69  16    79  576  576     0.00000   6.46227 1.28221e-003  1035  1799  -2.57   1.48  -0.11  -12.13    2.43   53.87  1.100 -0.550 0 2 0 2  0.417  0.417 330.91    0.00     0.00    0.00   1   90.00     0    0    0   110 2400.0  1   1    8    0   0.000    0.000    0.000  1
 71   1    1  1 0 0    70  16    79  576  576     0.00000   6.46227 1.28221e-003  1077  1872  -2.57   1.48  -0.11  -12.15    2.41   53.32  1.100 -0.550 0 2 0 2  0.417  0.417 330.91    0.00     0.00    0.00   1   90.00     0    0    0   110 2400.0  1   1    8    0   0.000    0.000    0.000  1
 72   1    1  1 0 0    71  16    79  576  576     0.00000   6.46227 1.28221e-003  1077  1872  -2.57   1.48  -0.11  -12.16    2.38   52.77  1.100 -0.550 0 2 0 2  0.417  0.417 330.91    0.00     0.00    0.00   1   90.00     0    0    0   110 2400.0  1   1    8    0   0.000    0.000    0.000  1
 73   1    1  1 0 0    72  16    79  576  576     0.00000   6.46227 1.28221e-003  1086  1888  -2.57   1.48  -0.11  -12.18    2.36   52.22  1.100 -0.550 0 2 0 2  0.417  0.417 330.91    0.00     0.00    0.00   1   90.00     0    0    0   110 2400.0  1   1    8    0   0.000    0.000    0.000  1
 74   1    1  1 0 0    73  16    79  576  576     0.00000   6.46227 1.28221e-003  1097  1907  -2.57   1.48  -0.11  -12.19    2.33   51.67  1.100 -0.550 0 2 0 2  0.417  0.417 330.91    0.00     0.00    0.00   1   90.00     0    0    0   110 2400.0  1   1    8    0   0.000    0.000    0.000  1
 75   1    1  1 0 0    74  16    79  576  576     0.00000   6.46227 1.28221e-003  1119  1946  -2.57   1.48  -0.11  -12.21    2.31   51.13  1.100 -0.550 0 2 0 2  0.417  0.417 330.91    0.00     0.00    0.00   1   90.00     0    0    0   110 2400.0  1   1    8    0   0.000    0.000    0.000  1
 76   1    1  1 0 0    75  16    79  576  576     0.00000   6.46227 1.28221e-003  1146  1991  -2.57   1.48  -0.11  -12.22    2.28   50.58  1.100 -0.550 0 2 0 2  0.417  0.417 330.91    0.00     0.00    0.00   1   90.00     0    0    0   110 2400.0  1   1    8    0   0.000    0.000    0.000  1
 77   1    1  1 0 0    76  16    79  576  576     0.00000   6.46227 1.28221e-003  1154  2006  -2.57   1.48  -0.11  -12.23    2.26   50.03  1.100 -0.550 0 2 0 2  0.417  0.417 330.91    0.00     0.00    0.00   1   90.00     0    0    0   110 2400.0  1   1    8    0   0.000    0.000    0.000  1
 78   1    1  1 0 0    77  16    79  576  576     0.00000   6.46227 1.28221e-003  1147  1995  -2.57   1.48  -0.11  -12.25    2.23   49.48  1.100 -0.550 0 2 0 2  0.417  0.417 330.91    0.00     0.00    0.00   1   90.00     0    0    0   110 2400.0  1   1    8    0   0.000    0.000    0.000  1
 79   1    1  1 0 0    78  16    79  576  576     0.00000   6.46227 1.28221e-003  1178  2048  -2.57   1.48  -0.11  -12.26    2.21   48.93  1.100 -0.550 0 2 0 2  0.417  0.417 330.91    0.00     0.00    0.00   1   90.00     0    0    0   110 2400.0  1   1    8    0   0.000    0.000    0.000  1
 80   1    1  1 0 0    79  16    79  576  576     0.00000   6.46227 1.28221e-003  1195  2077  -2.57   1.48  -0.11  -12.28    2.18   48.38  1.100 -0.550 0 2 0 2  0.417  0.417 330.91    0.00     0.00    0.00   1   90.00     0    0    0   110 2400.0  1   1    8    0   0.000    0.000    0.000  1
 81   1    1  1 0 0    80  16    79  576  576     0.00000   6.46227 1.28221e-003  1221  2123  -2.57   1.48  -0.11  -12.29    2.16   47.83  1.100 -0.550 0 2 0 2  0.417  0.417 330.91    0.00     0.00    0.00   1   90.00     0    0    0   110 2400.0  1   1    8    0   0.000    0.000    0.000  1
 82   1    1  1 0 0    81  16    79  576  576     0.00000   6.46227 1.28221e-003  1237  2150  -2.57   1.48  -0.11  -12.31    2.13   47.28  1.100 -0.550 0 2 0 2  0.417  0.417 330.91    0.00     0.00    0.00   1   90.00     0    0    0   110 2400.0  1   1    8    0   0.000    0.000    0.000  1
 83   1    1  1 0 0    82  16    79  576  576     0.00000   6.46227 1.28221e-003  1232  2141  -2.57   1.48  -0.11  -12.32    2.11   46.73  1.100 -0.550 0 2 0 2  0.417  0.417 330.91    0.00     0.00    0.00   1   90.00     0    0    0   110 2400.0  1   1    8    0   0.000    0.000    0.000  1
 84   1    1  1 0 0    83  16    79  576  576     0.00000   6.46227 1.28221e-003  1235  2146  -2.57   1.48  -0.11  -12.33    2.08   46.18  1.100 -0.550 0 2 0 2  0.417  0.417 330.91    0.00     0.00    0.00   1   90.00     0    0    0   110 2400.0  1   1    8    0   0.000    0.000    0.000  1
